*TYPE		=  Raw
*CLASS		=  ASCII CLASS
*SAMPLE		=  A56
*COMMENT	=   
*FNAME		=  A56_2thetaomega_2θ_ω.asc
*DATE		=  11-Jun-19 12:31

*GROUP_COUNT	=  1
*GONIO		=  SmartLab(In-plane), 0.000000
*ATTACHMENT	=  χφZクレードル
*ASC		=  0, 0, 0.000000, 0.000000
*I_MONOCHRO	=  Ge(220)x2, 0.000000
*FILTER		=  None
*C_MONOCHRO	=  No_unit, 0.000000
*SLIT_NAME	=  0, 入射スリット
*SLIT_NAME	=  1, 受光スリット1
*SLIT_NAME	=  2, 受光スリット2
*COUNTER	=  HyPix 3000(H), 0
*POS_FORMAT	=  0
*SCAN_AXIS	=  2Theta/Omega
*MEAS_MODE	=  Continuous Scanning
*TARGET		=  29
*XRAY_CHAR	=  K-ALPHA1
*WAVE_LENGTH1	=  1.54059
*WAVE_LENGTH2	=  1.54441
*THICKNESS	=  0, 0.000000
*MU		=  0, 0.000000
*SCAN_MODE	=  2Theta/Omega
*SPEED_DIM	=  sec./step
*XUNIT		=  deg.
*YUNIT		=  counts
*SCALE_MODE	=  1
*REP_COUNT	=  0
*SE_COUNT	=  0
*STD_MATERIAL	=  Unknown, Unknown, 0.000000, 0.000000, 0.000000, 0.000000, 0.000000, 0.000000
*LATT_CONS	=  0, Unknown, Unknown, 0.000000, 0.000000, 0.000000, 0.000000, 0.000000, 0.000000
*SEC_COUNT	=  1
*TSPEC_SIZE	=  0
*EXTRA_SIZE	=  0
*MEMO		=   

*BEGIN
*GROUP		=  0
*START		=  20
*STOP		=  90
*STEP		=  0.01
*OFFSET		=  0.000000
*SPEED		=  0.116312
*SLIT_SPEC	=  0, 0.500mm, 0.5, 0.000000
*SLIT_SPEC	=  1, 0.500mm, 0.5, 0.000000
*SLIT_SPEC	=  2, 0.500mm, 0.5, 0.000000
*KV		=  45
*MA		=  200
*LOW		=  0.000000
*HIGH		=  0.000000
*CTEMPER	=  0, 0.000000
*CTEMPER	=  1, 0.000000
*CTEMPER	=  2, 0.000000
*PAREX		=  0, 0.000000
*PAREX		=  1, 0.000000
*PAREX		=  2, 0.000000
*PAREX		=  3, 0.000000
*PAREX		=  4, 0.000000
*PAREX		=  5, 0.000000
*PAREX		=  6, 0.000000
*PAREX		=  7, 0.000000
*PAREX		=  8, 0.000000
*PAREX		=  9, 0.000000
*PAREX		=  10, 0.000000
*PAREX		=  11, 0.000000
*PAREX		=  12, 0.000000
*PAREX		=  13, 0.000000
*PAREX		=  14, 0.000000
*PAREX		=  15, 0.000000
*FULL_SCALE	=  180434
*INDEX		=  0, 0, 0
*COUNT		=  7001
0.000000, 0.99407, 0.987896, 0.000000
0.000000, 1.01493, 0.000000, 0.000000
0.000000, 1.01164, 1.02077, 0.000000
0.000000, 0.000000, 0.000000, 0.000000
0.000000, 0.000000, 0.000000, 0.000000
0.000000, 0.000000, 0.000000, 0.000000
0.000000, 0.000000, 0.000000, 0.000000
0.000000, 0.000000, 0.000000, 0.000000
0.000000, 0.000000, 0.000000, 0.000000
0.000000, 0.000000, 1.00552, 0.984184
1.02453, 0.000000, 0.000000, 0.000000
0.000000, 0.000000, 0.000000, 0.000000
1.29912, 0.000000, 0.000000, 0.000000
1.00208, 0.000000, 0.952999, 0.000000
1.00323, 0.982377, 0.000000, 0.000000
0.000000, 0.000000, 0.000000, 0.000000
0.000000, 0.000000, 2.0389, 0.000000
0.000000, 0.000000, 0.000000, 0.000000
1.00837, 0.000000, 0.000000, 0.985436
0.000000, 0.000000, 0.992874, 0.000000
0.000000, 0.000000, 0.000000, 0.000000
0.000000, 0.000000, 0.000000, 0.000000
0.000000, 0.000000, 0.000000, 0.991445
0.000000, 0.000000, 0.000000, 0.000000
0.000000, 0.000000, 0.000000, 0.000000
0.000000, 0.989438, 0.000000, 0.000000
0.000000, 0.000000, 0.000000, 0.000000
0.000000, 0.000000, 0.000000, 0.000000
0.978235, 0.000000, 0.000000, 0.000000
0.000000, 1.01487, 0.000000, 0.000000
0.000000, 0.000000, 0.000000, 0.000000
0.000000, 0.000000, 0.000000, 0.000000
0.000000, 0.000000, 2.98269, 0.99162
0.000000, 0.000000, 0.000000, 0.000000
0.000000, 0.000000, 1.00487, 0.99262
0.000000, 0.000000, 0.000000, 0.000000
0.000000, 0.000000, 0.000000, 0.000000
0.000000, 0.000000, 0.000000, 0.000000
0.000000, 0.000000, 0.000000, 0.000000
0.000000, 0.000000, 0.000000, 0.000000
0.000000, 0.000000, 0.000000, 0.000000
0.999737, 0.000000, 0.000000, 0.000000
0.000000, 0.000000, 0.000000, 0.000000
0.000000, 0.000000, 0.000000, 0.000000
0.000000, 1.01763, 0.000000, 1.0063
0.000000, 0.000000, 0.000000, 0.000000
0.000000, 0.000000, 0.000000, 1.00438
0.000000, 0.000000, 0.000000, 1.02258
0.973702, 0.98988, 0.000000, 0.984412
0.000000, 0.000000, 0.993812, 0.000000
0.000000, 0.000000, 0.000000, 0.000000
0.986182, 1.00139, 0.000000, 0.000000
0.994484, 0.000000, 1.00443, 0.000000
0.997718, 0.000000, 0.000000, 0.000000
0.000000, 0.000000, 0.000000, 0.000000
0.000000, 0.000000, 0.000000, 0.000000
0.000000, 0.000000, 0.000000, 0.000000
0.000000, 0.000000, 0.000000, 0.000000
1.00208, 0.999659, 0.000000, 0.000000
0.999183, 0.000000, 0.000000, 0.995891
0.000000, 0.000000, 0.000000, 0.000000
0.000000, 0.000000, 0.000000, 0.000000
0.000000, 0.978339, 0.000000, 1.0114
0.000000, 0.000000, 0.000000, 0.000000
0.978306, 0.000000, 0.000000, 0.000000
0.000000, 0.000000, 0.000000, 0.000000
0.000000, 0.000000, 0.000000, 0.000000
0.000000, 0.000000, 0.000000, 0.000000
0.000000, 0.000000, 0.000000, 0.000000
0.000000, 0.000000, 0.000000, 0.000000
0.000000, 0.000000, 0.000000, 0.000000
0.000000, 0.981991, 0.000000, 0.000000
0.000000, 0.000000, 0.000000, 0.000000
0.995995, 0.000000, 0.000000, 0.000000
0.000000, 0.000000, 0.000000, 0.994782
0.000000, 0.000000, 0.000000, 0.000000
0.000000, 0.000000, 0.000000, 0.000000
0.000000, 0.000000, 0.000000, 0.000000
0.000000, 0.000000, 0.000000, 0.000000
0.000000, 0.000000, 0.000000, 0.000000
0.000000, 0.000000, 0.000000, 0.000000
0.000000, 0.000000, 0.000000, 0.000000
0.000000, 0.000000, 0.985519, 0.991969
0.000000, 0.000000, 0.989225, 0.981647
0.000000, 0.000000, 0.998049, 1.9866
0.000000, 0.000000, 0.000000, 0.000000
0.000000, 0.991918, 0.000000, 0.000000
0.000000, 0.000000, 0.000000, 0.000000
0.000000, 0.000000, 0.000000, 0.000000
0.984537, 0.000000, 0.000000, 0.000000
0.000000, 0.000000, 0.000000, 0.000000
0.000000, 0.000000, 0.000000, 0.000000
0.000000, 0.000000, 0.000000, 0.000000
0.000000, 0.000000, 0.000000, 0.000000
0.000000, 0.000000, 0.98691, 0.000000
0.980679, 0.000000, 0.000000, 0.000000
0.000000, 0.000000, 0.000000, 0.000000
0.000000, 0.000000, 0.000000, 0.000000
0.000000, 0.000000, 0.000000, 0.000000
0.995844, 0.000000, 0.000000, 0.000000
0.000000, 0.000000, 0.000000, 0.000000
0.000000, 0.994179, 0.000000, 0.996041
0.000000, 0.000000, 0.000000, 0.000000
0.000000, 0.997601, 0.000000, 0.99786
0.000000, 0.000000, 0.000000, 0.000000
0.000000, 0.000000, 0.000000, 0.000000
0.981818, 0.000000, 0.000000, 0.000000
0.000000, 0.000000, 0.000000, 0.000000
0.000000, 0.000000, 0.000000, 0.000000
0.990207, 0.000000, 0.988022, 0.987688
0.000000, 1.98774, 0.000000, 0.000000
0.000000, 0.000000, 0.000000, 0.000000
0.000000, 0.000000, 0.000000, 0.000000
0.000000, 0.000000, 0.000000, 0.000000
0.000000, 0.000000, 0.000000, 0.000000
0.000000, 1.02276, 0.996694, 0.000000
0.000000, 0.000000, 0.000000, 0.000000
1.00187, 0.000000, 0.000000, 0.000000
0.000000, 0.000000, 0.000000, 0.000000
0.000000, 0.000000, 0.000000, 0.000000
0.000000, 0.000000, 0.000000, 0.000000
0.000000, 0.000000, 1.00258, 1.96101
0.000000, 1.00488, 0.000000, 0.000000
0.000000, 0.000000, 0.000000, 1.00914
0.97911, 0.000000, 0.000000, 0.000000
0.000000, 0.000000, 0.000000, 0.000000
0.000000, 0.000000, 0.000000, 2.00185
0.000000, 0.000000, 0.000000, 0.000000
0.000000, 0.000000, 0.000000, 0.000000
1.00379, 0.000000, 0.000000, 0.990651
0.969502, 0.000000, 0.000000, 0.000000
0.978662, 1.01349, 0.000000, 0.000000
0.000000, 0.000000, 0.000000, 0.000000
0.000000, 0.000000, 0.000000, 1.03777
0.000000, 0.000000, 0.000000, 0.988589
0.988463, 0.975459, 0.000000, 0.000000
0.991445, 0.987345, 0.000000, 0.000000
0.000000, 0.000000, 0.000000, 0.000000
0.000000, 0.000000, 0.000000, 0.000000
0.000000, 0.000000, 0.000000, 0.000000
0.000000, 0.000000, 0.000000, 0.000000
0.000000, 0.000000, 0.000000, 0.997335
0.000000, 0.988569, 0.000000, 0.000000
0.000000, 1.14147, 0.991445, 0.000000
0.969502, 0.000000, 0.000000, 0.000000
0.000000, 0.000000, 0.000000, 0.000000
0.997476, 0.976382, 0.995516, 0.000000
0.000000, 0.000000, 0.000000, 0.000000
0.000000, 0.000000, 0.000000, 0.996212
0.997464, 0.000000, 0.000000, 0.000000
0.000000, 0.000000, 0.995916, 0.000000
0.000000, 0.000000, 0.000000, 0.000000
0.000000, 0.000000, 0.000000, 0.000000
0.000000, 0.000000, 0.000000, 0.000000
0.000000, 0.000000, 0.000000, 0.000000
0.000000, 0.000000, 1.01545, 0.000000
0.000000, 0.000000, 0.000000, 0.000000
0.97911, 0.000000, 0.000000, 0.981862
0.000000, 0.000000, 0.000000, 0.000000
0.985327, 0.000000, 0.000000, 0.000000
0.985255, 0.000000, 0.996913, 0.000000
0.000000, 1.00015, 0.000000, 0.000000
0.997601, 0.000000, 0.000000, 0.000000
0.000000, 0.000000, 0.000000, 0.000000
0.000000, 0.000000, 1.0166, 0.000000
0.000000, 0.000000, 1.0085, 0.987345
1.02218, 0.000000, 0.000000, 0.000000
1.00329, 0.997784, 0.000000, 1.00246
0.994689, 0.993514, 0.000000, 0.000000
0.000000, 0.000000, 0.000000, 0.000000
0.000000, 0.000000, 1.03058, 0.000000
1.03082, 0.000000, 0.000000, 0.000000
0.000000, 1.03149, 0.000000, 1.01996
0.000000, 0.000000, 0.000000, 0.000000
0.000000, 0.000000, 0.996544, 0.990516
0.000000, 0.000000, 0.000000, 0.000000
0.000000, 0.000000, 0.000000, 0.000000
0.000000, 0.000000, 0.000000, 0.000000
0.000000, 0.000000, 0.000000, 0.000000
0.000000, 0.000000, 0.000000, 2.0032
0.000000, 0.000000, 0.000000, 0.000000
0.000000, 0.000000, 0.000000, 0.000000
0.000000, 0.989299, 0.000000, 0.998874
0.97891, 0.000000, 0.000000, 0.000000
0.980527, 0.96292, 1.01056, 0.000000
0.000000, 0.000000, 0.000000, 0.000000
0.000000, 0.998526, 0.000000, 0.000000
0.000000, 0.986875, 0.996177, 0.000000
0.000000, 1.99595, 0.996711, 0.000000
0.000000, 0.000000, 0.000000, 0.000000
0.000000, 0.000000, 0.000000, 0.000000
0.990516, 3.02689, 0.000000, 1.00329
2.99313, 0.991859, 0.000000, 0.000000
0.000000, 0.997233, 0.000000, 0.974622
0.000000, 0.000000, 0.000000, 1.0079
0.000000, 0.000000, 0.000000, 0.952999
0.000000, 0.000000, 0.000000, 0.000000
0.000000, 0.000000, 0.000000, 0.000000
0.990903, 0.000000, 0.000000, 0.000000
1.98958, 1.96867, 0.000000, 0.000000
0.000000, 0.000000, 0.000000, 0.992222
0.000000, 0.972822, 0.997843, 1.01763
0.000000, 0.000000, 0.000000, 0.993788
1.03153, 0.000000, 0.998603, 0.000000
0.000000, 0.000000, 0.000000, 0.000000
1.00139, 0.000000, 0.980693, 0.000000
0.000000, 0.000000, 0.000000, 0.000000
0.993788, 0.000000, 0.000000, 1.00109
0.000000, 0.000000, 0.000000, 0.000000
0.000000, 0.000000, 0.000000, 0.000000
0.000000, 1.01787, 0.000000, 0.981818
0.000000, 0.000000, 0.000000, 1.03093
0.000000, 0.000000, 0.000000, 0.000000
0.000000, 2.99785, 1.99839, 0.000000
0.000000, 0.000000, 0.000000, 0.997652
1.00917, 0.000000, 0.992769, 0.000000
0.000000, 0.000000, 0.000000, 0.000000
0.994251, 0.000000, 0.000000, 0.000000
0.000000, 2.01238, 1.02276, 0.980006
0.000000, 0.000000, 0.000000, 0.989895
0.996983, 0.000000, 0.998276, 0.000000
0.000000, 0.000000, 0.000000, 0.000000
0.000000, 0.000000, 0.986882, 0.000000
1.97595, 0.000000, 0.000000, 0.000000
0.000000, 0.000000, 0.988085, 1.00707
0.000000, 0.998924, 2.00726, 0.997966
0.000000, 0.000000, 0.976205, 3.97516
1.00476, 1.96378, 1.00289, 0.991773
0.000000, 0.000000, 0.000000, 1.00753
0.000000, 0.000000, 1.99731, 0.000000
0.000000, 0.998102, 0.000000, 1.02963
0.000000, 2.01539, 2.00219, 0.000000
0.000000, 0.952999, 0.000000, 2.04504
2.01421, 2.01587, 0.000000, 0.973702
0.000000, 0.000000, 0.980693, 0.000000
1.00617, 0.000000, 2.01955, 0.000000
0.99262, 0.987171, 1.97908, 0.000000
2.00921, 0.000000, 2.98757, 0.968993
1.01765, 0.000000, 0.983593, 0.000000
1.04347, 0.000000, 0.000000, 2.02642
2.01474, 0.998102, 0.000000, 0.000000
0.997233, 0.000000, 1.99133, 1.02767
0.994324, 0.000000, 3.97682, 1.95729
1.97539, 0.990361, 2.95406, 0.000000
0.988973, 1.98881, 0.000000, 3.02142
0.000000, 0.000000, 5.9274, 1.00193
0.994179, 1.98501, 1.98971, 0.000000
2.92767, 0.000000, 0.000000, 2.00425
0.000000, 2.004, 0.984872, 0.000000
0.979389, 2.00108, 0.000000, 0.997301
0.000000, 1.00377, 1.00265, 0.997088
0.000000, 2.01172, 1.99987, 0.000000
1.00599, 4.0251, 0.979151, 3.96719
0.996544, 1.99542, 0.000000, 3.98812
3.0149, 0.000000, 0.000000, 1.97695
0.000000, 1.98564, 0.000000, 3.98005
0.000000, 2.01681, 1.99053, 0.991158
2.01723, 1.98024, 5.01525, 1.97924
0.986875, 2.98642, 3.00099, 0.000000
0.000000, 2.99524, 4.00587, 4.02455
3.98888, 1.00278, 1.00207, 2.99459
4.98055, 2.02436, 0.000000, 0.978951
1.99524, 3.95786, 3.97653, 1.97707
1.97811, 2.00726, 1.99239, 5.96447
2.93117, 0.000000, 1.99459, 2.97782
0.997601, 4.03215, 1.01892, 4.98799
2.97034, 5.94876, 2.02401, 4.98911
3.95639, 3.01881, 4.94682, 4.93838
3.94307, 1.96453, 3.99531, 5.01043
2.98194, 6.88524, 4.989, 2.00557
5.02357, 3.02762, 2.99424, 3.96792
5.95536, 2.02239, 2.01714, 4.99846
4.04594, 3.0021, 6.06024, 1.00896
7.9796, 5.0107, 9.98361, 10.9198
2.9836, 11.9595, 6.0588, 5.97281
9.98626, 8.91738, 7.10274, 4.03626
4.95098, 7.99688, 8.92864, 1.98042
4.0118, 7.0208, 7.98174, 8.00103
9.95666, 4.92262, 5.98962, 8.99173
8.96074, 13.0377, 9.83768, 10.9898
5.99102, 10.9481, 11.9082, 11.0419
11.9033, 18.0003, 14.9258, 14.0565
13.9829, 13.0056, 17.0489, 11.9444
13.98, 18.0197, 16.9229, 17.969
13.9232, 19.8837, 20.8857, 16.9127
22.8695, 19.987, 24.8758, 22.9203
23.8963, 27.8583, 32.7354, 47.7493
59.6287, 61.7562, 65.7163, 75.7538
100.821, 92.6917, 169.733, 207.304
280.326, 415.2, 622.62, 1108.44
2088.49, 4918.53, 5159.46, 5719.8
7565.14, 9881.01, 13713.9, 17488.8
13331.2, 9087.13, 7514.32, 5677.99
2189.88, 804.4, 592.16, 494.545
418.514, 204.424, 111.659, 44.0109
53.7745, 27.9826, 39.821, 13.9703
17.9154, 22.903, 20.1994, 21.987
19.9243, 9.81057, 8.99941, 19.9945
13.9258, 6.98706, 10.9726, 10.9067
8.92582, 9.97739, 17.0263, 4.93618
7.93035, 6.9241, 5.98681, 7.92842
9.94728, 4.9937, 10.9248, 7.00227
9.13548, 6.03429, 4.96896, 4.99365
7.97152, 9.21966, 9.00626, 5.00032
5.99833, 6.01393, 5.95683, 5.96722
2.98692, 5.94727, 9.9663, 5.94886
2.98144, 7.89315, 2.03163, 1.99406
3.00543, 5.95055, 4.02953, 4.02704
4.00525, 1.9885, 5.96825, 5.96335
2.9738, 6.01853, 4.97621, 0.000000
2.11974, 3.97808, 4.9564, 4.93613
7.92482, 4.97002, 1.00358, 5.92646
0.000000, 2.97, 5.96304, 3.00347
3.96612, 4.0193, 5.96871, 1.99066
1.00712, 2.00924, 6.014, 2.00485
0.000000, 3.99362, 0.000000, 3.96375
2.99006, 2.97817, 2.03752, 3.94862
1.98351, 2.02424, 4.0101, 1.01996
4.28537, 0.986465, 1.98374, 4.98774
1.99681, 1.97531, 0.991819, 3.01691
0.982542, 0.990361, 1.99106, 1.99312
1.99821, 1.98014, 2.00409, 0.983713
1.98722, 2.96891, 2.96552, 2.0378
1.00009, 0.994251, 1.99182, 1.97557
2.00935, 3.98911, 0.995516, 0.996102
3.0264, 0.982097, 1.00917, 3.04767
1.99872, 3.98228, 1.95833, 1.99858
0.000000, 2.9749, 2.93681, 3.00052
0.000000, 1.00497, 2.97296, 1.97423
1.03092, 2.93877, 1.9785, 1.99084
2.00891, 3.94515, 1.97092, 1.98498
0.000000, 0.000000, 0.986465, 0.999559
1.99907, 1.01853, 2.95681, 0.977629
4.00947, 0.98837, 4.02765, 0.996212
1.00189, 2.02214, 0.991158, 2.99625
3.99489, 0.96292, 0.000000, 1.99302
2.00404, 2.01892, 0.985206, 0.000000
0.000000, 4.96, 0.000000, 0.995168
0.999559, 0.984784, 2.0074, 0.000000
0.000000, 1.03375, 2.04265, 0.000000
3.98491, 1.98022, 1.93947, 1.99692
0.980345, 2.97205, 2.98034, 0.000000
1.97696, 0.982551, 0.989854, 2.97699
1.99192, 1.0079, 0.000000, 0.981991
0.000000, 1.02218, 1.00552, 2.04345
0.000000, 0.000000, 0.960999, 0.952999
0.000000, 0.998446, 0.000000, 0.000000
0.988009, 2.00915, 0.000000, 3.01027
0.979422, 2.95433, 2.01284, 0.000000
1.9951, 0.999689, 0.000000, 0.988942
0.995516, 1.97338, 0.000000, 0.000000
1.00139, 0.997601, 0.000000, 1.00538
0.000000, 0.958477, 0.000000, 0.000000
0.977736, 0.989299, 0.000000, 1.97405
0.000000, 0.000000, 0.998868, 1.02077
0.000000, 1.96561, 1.00187, 1.0002
0.992874, 0.000000, 0.993375, 0.000000
0.000000, 1.01364, 0.000000, 0.000000
0.990101, 0.000000, 0.000000, 0.000000
0.000000, 0.97911, 1.01553, 1.00323
0.000000, 0.000000, 0.000000, 0.988078
0.000000, 1.97766, 0.998276, 0.998102
1.02988, 0.000000, 2.98533, 0.000000
0.972547, 0.984057, 0.000000, 0.991943
1.00189, 1.0054, 0.988163, 0.000000
0.000000, 0.000000, 0.000000, 1.03058
1.94238, 1.96674, 0.988589, 0.000000
1.00707, 0.000000, 1.01936, 0.000000
0.000000, 0.000000, 0.000000, 0.000000
0.000000, 1.00208, 0.985255, 0.990386
0.000000, 0.000000, 0.000000, 2.0093
0.000000, 1.98109, 0.000000, 0.000000
0.996545, 0.000000, 1.02828, 1.95733
2.01609, 0.999002, 0.000000, 1.01996
0.974124, 0.000000, 0.000000, 0.000000
0.000000, 0.000000, 0.991158, 1.9815
0.000000, 0.000000, 0.000000, 0.98114
0.997601, 1.00146, 0.000000, 2.9982
0.000000, 0.000000, 0.97107, 0.000000
0.000000, 0.000000, 0.990101, 1.01441
0.982887, 0.000000, 0.000000, 0.000000
0.000000, 0.995279, 1.01345, 2.02725
0.980527, 0.000000, 0.971059, 0.000000
0.000000, 0.989461, 0.000000, 2.00463
0.000000, 0.99925, 0.000000, 1.98761
0.981435, 0.000000, 1.01865, 1.9601
0.000000, 0.990651, 1.01996, 0.969502
0.989742, 0.000000, 0.000000, 0.000000
0.976949, 1.00917, 0.000000, 0.991709
1.99937, 2.00699, 0.982569, 0.000000
0.000000, 0.000000, 1.0018, 0.992417
0.000000, 0.000000, 0.000000, 0.000000
0.000000, 0.990596, 0.000000, 0.000000
0.000000, 2.1329, 2.01999, 0.000000
0.000000, 0.000000, 0.000000, 0.987688
1.00575, 0.000000, 0.000000, 0.000000
1.95601, 0.000000, 0.000000, 0.000000
0.000000, 0.000000, 1.00402, 0.000000
0.000000, 1.00401, 0.983593, 0.000000
0.000000, 0.000000, 0.99162, 1.01493
0.000000, 0.000000, 0.000000, 0.99741
1.03117, 0.000000, 0.000000, 0.000000
0.000000, 0.000000, 0.000000, 0.000000
1.00583, 0.000000, 0.994035, 0.000000
0.000000, 0.000000, 0.000000, 0.000000
0.000000, 0.000000, 0.000000, 0.000000
0.000000, 0.996604, 0.000000, 0.000000
0.000000, 0.000000, 0.000000, 0.000000
0.000000, 0.000000, 0.000000, 0.000000
1.00487, 0.968574, 0.000000, 0.000000
0.985361, 1.98976, 0.000000, 0.000000
0.000000, 1.0027, 0.996004, 0.000000
0.000000, 0.000000, 0.989461, 0.000000
0.000000, 0.968199, 0.000000, 0.000000
0.000000, 0.000000, 0.000000, 0.000000
0.000000, 1.0114, 0.000000, 0.000000
0.989021, 1.00856, 0.000000, 0.000000
0.970628, 0.000000, 0.000000, 0.000000
1.01989, 0.000000, 1.00449, 0.000000
0.000000, 0.000000, 0.000000, 0.000000
0.000000, 0.000000, 1.00246, 0.000000
0.000000, 0.000000, 0.000000, 0.000000
0.000000, 0.000000, 0.998546, 0.000000
0.000000, 1.02077, 0.000000, 0.000000
0.000000, 0.000000, 0.000000, 0.000000
0.000000, 0.989742, 0.000000, 0.000000
0.000000, 0.990536, 0.995864, 0.999458
0.000000, 0.000000, 0.000000, 0.000000
0.000000, 0.000000, 0.000000, 0.000000
0.000000, 0.990065, 0.000000, 0.000000
0.000000, 0.000000, 0.995588, 0.000000
0.000000, 0.000000, 1.0054, 0.000000
0.990225, 0.000000, 0.000000, 0.000000
0.000000, 0.000000, 0.000000, 0.000000
0.000000, 1.98956, 0.000000, 1.00162
0.984659, 0.993645, 0.000000, 1.00606
1.00837, 0.994689, 0.000000, 0.000000
0.000000, 0.000000, 0.000000, 0.000000
1.01091, 0.000000, 0.000000, 0.000000
0.000000, 0.998546, 0.000000, 0.996102
0.000000, 0.000000, 0.992427, 0.000000
0.000000, 0.000000, 0.000000, 0.000000
0.999405, 0.99262, 0.000000, 0.000000
0.983508, 0.000000, 0.000000, 0.000000
1.02107, 0.988794, 0.000000, 0.98897
0.000000, 0.000000, 1.00455, 4.01901
0.000000, 0.000000, 0.000000, 1.00505
0.000000, 0.000000, 1.99369, 2.07258
0.996061, 1.99384, 2.0192, 0.979405
2.02177, 0.000000, 1.00401, 4.00133
0.99499, 0.000000, 3.99586, 1.97925
0.993959, 0.000000, 1.98719, 3.96048
1.97909, 1.96105, 0.994251, 0.988163
0.977736, 1.97236, 0.98649, 2.02086
1.98186, 0.000000, 1.99219, 0.991943
1.00169, 0.978767, 0.000000, 3.03458
0.000000, 0.993375, 1.00988, 0.000000
1.00207, 0.988569, 0.000000, 0.000000
0.000000, 0.000000, 1.01936, 0.992996
1.01052, 0.000000, 0.000000, 0.980265
0.000000, 0.000000, 0.000000, 0.000000
0.000000, 0.000000, 0.000000, 0.000000
0.998546, 0.000000, 0.000000, 0.000000
0.000000, 0.000000, 0.994035, 0.000000
1.00265, 0.000000, 1.00814, 0.000000
0.000000, 0.000000, 0.000000, 0.000000
0.000000, 0.000000, 0.000000, 0.000000
0.000000, 0.000000, 3.00268, 2.01164
0.000000, 0.000000, 0.000000, 0.000000
0.984184, 0.000000, 0.000000, 0.000000
0.000000, 0.000000, 0.000000, 1.00092
0.000000, 0.000000, 0.000000, 0.969094
0.995828, 0.000000, 0.000000, 0.000000
0.000000, 0.000000, 2.97047, 0.952999
0.000000, 0.980265, 0.000000, 0.000000
1.03117, 0.991596, 0.000000, 2.13121
0.990225, 0.994333, 0.000000, 0.972547
0.000000, 0.000000, 0.000000, 0.000000
0.000000, 0.000000, 0.000000, 0.000000
0.000000, 0.000000, 1.02258, 0.000000
0.000000, 0.000000, 0.000000, 0.000000
0.000000, 0.000000, 0.000000, 0.000000
0.986882, 0.000000, 0.000000, 1.15151
0.000000, 0.000000, 0.000000, 0.000000
0.000000, 0.000000, 0.999598, 0.000000
0.993959, 0.000000, 0.000000, 0.000000
0.000000, 0.000000, 0.991096, 1.99932
0.000000, 0.000000, 0.000000, 2.99166
0.000000, 0.000000, 0.000000, 0.000000
0.000000, 0.000000, 0.991785, 1.98348
0.000000, 0.000000, 0.000000, 0.000000
0.981647, 0.000000, 0.000000, 0.000000
0.000000, 0.000000, 0.000000, 0.000000
0.000000, 0.980244, 0.985137, 0.000000
0.000000, 0.000000, 0.000000, 0.000000
0.000000, 0.000000, 0.000000, 0.000000
0.000000, 0.000000, 0.000000, 0.000000
0.985111, 0.000000, 0.000000, 0.000000
0.000000, 0.984659, 0.000000, 0.000000
0.000000, 0.000000, 0.000000, 0.992319
0.000000, 0.000000, 0.977429, 0.000000
0.000000, 0.000000, 0.000000, 0.000000
0.000000, 0.983566, 0.000000, 0.000000
0.000000, 0.000000, 0.000000, 0.000000
0.000000, 2.97218, 0.000000, 0.000000
2.01852, 0.000000, 0.992417, 0.000000
0.000000, 1.01345, 0.000000, 0.000000
0.987171, 0.000000, 0.000000, 0.000000
0.999085, 0.000000, 0.000000, 0.000000
0.000000, 0.000000, 0.000000, 0.000000
0.000000, 0.000000, 0.000000, 0.000000
0.000000, 0.000000, 0.000000, 0.000000
0.988009, 0.000000, 0.000000, 0.000000
0.000000, 0.98706, 0.000000, 0.000000
0.000000, 0.000000, 0.000000, 0.000000
0.000000, 0.000000, 0.000000, 0.000000
0.000000, 0.000000, 0.000000, 0.000000
0.000000, 0.000000, 0.000000, 0.000000
0.000000, 1.00567, 0.000000, 0.000000
0.000000, 0.000000, 0.000000, 0.000000
1.01086, 0.000000, 0.000000, 1.01853
2.01275, 0.000000, 0.000000, 0.000000
1.00712, 0.978235, 0.000000, 0.000000
0.000000, 0.000000, 0.000000, 0.000000
0.000000, 0.000000, 0.000000, 0.000000
0.000000, 0.000000, 0.000000, 0.982243
0.000000, 0.000000, 0.995516, 1.00575
0.000000, 0.995193, 0.000000, 0.000000
0.000000, 0.000000, 0.000000, 0.000000
0.000000, 0.000000, 0.984872, 0.000000
0.000000, 0.999405, 0.000000, 0.000000
0.000000, 0.000000, 0.98706, 0.000000
0.000000, 0.000000, 0.000000, 1.01936
0.982552, 0.000000, 0.000000, 0.000000
1.0114, 0.000000, 0.000000, 0.000000
0.000000, 0.000000, 0.000000, 0.000000
0.000000, 0.000000, 0.000000, 0.000000
0.000000, 0.000000, 1.03997, 0.000000
0.990922, 0.000000, 0.000000, 0.000000
0.000000, 0.000000, 0.000000, 0.000000
0.000000, 0.000000, 0.000000, 0.000000
0.000000, 0.000000, 0.000000, 0.98706
0.000000, 0.000000, 0.000000, 0.000000
0.000000, 0.000000, 0.985361, 0.000000
0.000000, 0.000000, 0.000000, 0.000000
0.000000, 0.000000, 0.995699, 0.000000
0.000000, 0.000000, 0.000000, 0.000000
0.000000, 0.000000, 0.000000, 0.000000
0.000000, 1.01349, 0.000000, 0.000000
0.000000, 0.000000, 0.000000, 0.000000
0.000000, 0.000000, 0.000000, 0.000000
0.000000, 0.000000, 0.000000, 0.000000
0.000000, 0.000000, 0.000000, 0.000000
0.000000, 0.000000, 1.97311, 0.000000
0.000000, 0.982552, 0.987508, 0.000000
0.000000, 0.000000, 0.000000, 0.000000
0.000000, 0.000000, 0.000000, 0.000000
0.000000, 0.995168, 0.000000, 0.000000
0.000000, 0.000000, 0.000000, 0.977426
0.000000, 0.000000, 0.000000, 0.000000
0.000000, 0.000000, 0.000000, 0.000000
0.000000, 0.000000, 0.000000, 0.000000
0.000000, 0.000000, 0.000000, 0.000000
0.000000, 0.000000, 0.985608, 0.989869
0.000000, 0.000000, 0.000000, 0.000000
0.000000, 0.000000, 0.000000, 0.000000
0.000000, 0.000000, 0.000000, 0.000000
1.01923, 0.000000, 0.000000, 0.000000
0.000000, 0.000000, 1.01557, 0.989308
0.000000, 0.000000, 0.000000, 0.000000
0.000000, 0.000000, 0.000000, 0.000000
0.990831, 0.000000, 0.000000, 0.000000
0.000000, 0.000000, 0.000000, 1.97688
0.000000, 0.000000, 0.000000, 0.000000
0.000000, 0.000000, 0.999802, 0.000000
0.000000, 0.980345, 1.01014, 0.000000
0.000000, 0.000000, 0.000000, 0.000000
0.998124, 0.000000, 0.000000, 0.000000
0.000000, 0.000000, 0.000000, 0.000000
0.000000, 0.000000, 0.000000, 0.000000
0.000000, 0.000000, 0.000000, 0.000000
0.000000, 0.000000, 0.000000, 0.000000
0.000000, 0.987067, 0.000000, 0.000000
0.000000, 0.000000, 0.000000, 0.000000
0.000000, 0.000000, 0.000000, 0.000000
0.000000, 0.000000, 0.000000, 0.000000
0.000000, 0.000000, 1.00076, 0.998116
0.000000, 0.000000, 0.000000, 0.000000
0.000000, 0.988733, 0.000000, 0.994782
0.000000, 0.000000, 0.000000, 0.98706
0.000000, 0.000000, 0.960999, 0.000000
0.000000, 0.000000, 0.000000, 0.000000
0.000000, 0.000000, 0.000000, 0.998328
0.000000, 0.000000, 0.169235, 0.000000
0.000000, 0.000000, 0.000000, 0.000000
0.000000, 0.000000, 0.988009, 1.00187
0.000000, 0.000000, 0.000000, 0.000000
0.000000, 1.00024, 1.98974, 0.000000
0.98988, 0.000000, 0.000000, 0.000000
0.000000, 1.00287, 0.000000, 0.000000
0.000000, 0.000000, 1.98193, 0.984948
0.000000, 0.995372, 0.000000, 0.000000
0.000000, 0.000000, 2.00805, 0.997827
0.981356, 0.992886, 0.000000, 0.978951
0.000000, 0.000000, 0.978157, 1.00258
2.96704, 1.01545, 0.000000, 1.01086
0.000000, 0.000000, 0.000000, 1.00952
0.000000, 1.00594, 0.999482, 0.000000
0.000000, 1.01389, 0.000000, 1.0092
1.00982, 0.000000, 0.000000, 0.000000
2.02026, 0.000000, 0.000000, 0.968993
0.000000, 0.000000, 0.000000, 0.000000
0.000000, 0.000000, 1.02859, 0.987688
0.000000, 0.000000, 0.000000, 0.000000
0.000000, 1.01585, 0.000000, 0.000000
0.000000, 0.000000, 0.000000, 0.000000
0.000000, 0.000000, 0.000000, 1.00799
0.000000, 1.95954, 0.000000, 0.000000
0.000000, 0.000000, 0.000000, 1.0114
1.02218, 0.000000, 0.988163, 0.000000
0.000000, 0.000000, 0.000000, 0.000000
0.000000, 0.000000, 0.000000, 0.000000
0.000000, 0.995434, 0.000000, 0.000000
0.000000, 0.000000, 0.000000, 0.000000
0.000000, 0.000000, 0.000000, 0.000000
0.993645, 0.000000, 0.000000, 0.000000
0.000000, 0.000000, 0.000000, 0.000000
0.000000, 0.000000, 1.00024, 0.000000
0.000000, 0.000000, 0.000000, 0.000000
0.000000, 0.000000, 0.000000, 0.995891
0.000000, 0.000000, 0.000000, 0.000000
0.000000, 0.000000, 0.000000, 0.000000
1.01387, 0.000000, 0.000000, 0.000000
0.000000, 0.000000, 0.000000, 1.00488
0.000000, 0.000000, 0.000000, 1.00658
0.000000, 0.982552, 0.000000, 0.99581
0.000000, 0.000000, 2.25646, 0.000000
1.99225, 0.000000, 0.000000, 0.000000
0.000000, 0.000000, 0.000000, 0.000000
0.000000, 0.000000, 0.000000, 0.000000
1.99561, 0.000000, 0.000000, 0.99925
0.000000, 1.00858, 0.000000, 0.000000
0.000000, 0.000000, 0.000000, 0.000000
0.000000, 0.000000, 0.000000, 0.000000
0.000000, 1.00165, 0.000000, 0.000000
0.991218, 0.000000, 0.000000, 0.000000
0.000000, 0.000000, 0.977629, 0.000000
0.000000, 0.000000, 0.000000, 0.000000
0.000000, 0.000000, 0.000000, 0.000000
0.000000, 0.000000, 1.01923, 1.00165
0.000000, 0.000000, 0.000000, 0.000000
0.000000, 0.000000, 0.991785, 0.000000
0.000000, 0.000000, 0.000000, 0.000000
0.000000, 0.000000, 0.000000, 0.000000
0.000000, 0.000000, 0.000000, 0.986088
0.000000, 0.000000, 0.000000, 0.000000
0.000000, 0.000000, 0.000000, 0.000000
0.000000, 0.000000, 0.000000, 0.000000
0.000000, 0.000000, 0.000000, 0.000000
0.000000, 0.000000, 0.988969, 1.01387
0.000000, 0.000000, 0.000000, 0.000000
2.00866, 0.000000, 0.000000, 0.000000
0.000000, 0.000000, 1.01989, 0.000000
0.000000, 0.992769, 1.00651, 0.000000
0.000000, 0.000000, 0.000000, 1.00287
0.000000, 0.999618, 0.000000, 0.000000
0.000000, 0.000000, 0.000000, 1.97436
0.000000, 0.000000, 0.000000, 0.988078
0.000000, 0.000000, 0.000000, 0.000000
0.000000, 0.000000, 0.000000, 0.984872
0.000000, 0.000000, 0.000000, 0.000000
0.000000, 0.000000, 0.000000, 0.000000
0.000000, 0.000000, 0.000000, 0.000000
0.000000, 0.000000, 0.000000, 0.000000
0.000000, 0.000000, 0.000000, 0.000000
0.000000, 0.000000, 0.000000, 0.000000
0.000000, 0.000000, 0.000000, 0.000000
0.000000, 0.000000, 0.000000, 0.000000
0.000000, 0.000000, 0.000000, 0.000000
0.000000, 0.000000, 0.000000, 0.000000
0.000000, 0.000000, 1.00145, 0.000000
0.000000, 0.000000, 0.000000, 0.991793
0.000000, 0.000000, 0.000000, 0.000000
0.000000, 0.000000, 0.000000, 0.000000
0.000000, 1.0018, 0.000000, 0.000000
0.000000, 0.000000, 0.000000, 0.000000
0.000000, 0.000000, 0.000000, 0.000000
0.997601, 0.997875, 0.000000, 0.000000
0.000000, 0.000000, 0.000000, 0.000000
0.000000, 0.000000, 0.000000, 0.000000
0.000000, 0.990596, 0.000000, 0.000000
0.998874, 0.000000, 0.000000, 1.00196
0.000000, 0.000000, 0.000000, 0.000000
0.000000, 1.01936, 0.993303, 0.000000
0.000000, 0.000000, 0.000000, 0.000000
0.000000, 0.000000, 0.000000, 0.000000
0.952999, 0.000000, 0.000000, 0.000000
0.000000, 0.000000, 0.000000, 0.988589
0.000000, 0.000000, 0.000000, 0.000000
0.000000, 0.000000, 0.000000, 0.000000
0.000000, 0.000000, 0.000000, 0.000000
0.000000, 0.990383, 0.971962, 0.000000
0.000000, 0.000000, 0.000000, 0.977429
0.997966, 0.000000, 0.000000, 0.000000
0.000000, 0.000000, 0.000000, 0.000000
0.000000, 0.000000, 0.989299, 0.000000
0.000000, 0.998124, 0.000000, 0.000000
0.000000, 0.000000, 0.000000, 0.000000
0.000000, 0.000000, 0.000000, 0.000000
0.000000, 0.000000, 0.000000, 0.99407
0.000000, 0.000000, 0.000000, 0.000000
0.000000, 0.984821, 0.000000, 0.000000
0.000000, 0.000000, 0.000000, 0.000000
0.000000, 0.000000, 0.000000, 0.000000
0.000000, 0.000000, 0.000000, 0.000000
0.000000, 0.981818, 0.000000, 0.000000
0.000000, 0.000000, 0.000000, 0.000000
0.000000, 0.000000, 0.000000, 0.000000
0.000000, 0.000000, 0.000000, 0.997464
0.991445, 1.97324, 0.000000, 0.000000
0.000000, 0.000000, 0.000000, 0.000000
0.000000, 0.000000, 0.000000, 0.000000
0.000000, 0.000000, 0.000000, 0.000000
0.000000, 0.000000, 0.000000, 0.000000
0.000000, 0.000000, 0.000000, 0.000000
0.000000, 0.000000, 0.000000, 0.000000
2.00483, 0.000000, 0.000000, 0.000000
0.000000, 0.000000, 0.000000, 0.000000
0.000000, 0.000000, 0.000000, 0.000000
0.000000, 0.000000, 0.000000, 0.000000
0.000000, 0.000000, 0.000000, 0.000000
0.000000, 0.000000, 0.000000, 0.000000
0.000000, 0.000000, 0.000000, 0.000000
0.000000, 0.000000, 0.000000, 0.000000
0.000000, 0.000000, 0.000000, 0.000000
0.000000, 0.000000, 0.000000, 1.00007
0.000000, 0.000000, 0.000000, 0.000000
0.000000, 0.000000, 0.000000, 0.000000
0.000000, 0.000000, 0.000000, 0.000000
0.000000, 1.00539, 0.991918, 0.000000
0.000000, 0.000000, 0.000000, 0.000000
0.000000, 0.979405, 0.000000, 1.03375
0.000000, 0.000000, 0.992617, 0.000000
0.992964, 0.000000, 0.000000, 0.000000
0.000000, 0.000000, 1.00187, 0.000000
0.000000, 0.000000, 0.000000, 0.000000
0.000000, 0.000000, 0.000000, 0.000000
0.000000, 0.990903, 0.000000, 0.000000
0.000000, 0.000000, 0.000000, 0.000000
0.000000, 0.000000, 0.000000, 0.000000
0.000000, 0.000000, 0.000000, 0.000000
0.000000, 0.000000, 0.000000, 0.000000
0.000000, 0.000000, 0.000000, 0.000000
0.000000, 0.000000, 0.000000, 0.000000
0.000000, 0.000000, 0.992617, 0.000000
0.000000, 0.000000, 0.000000, 0.000000
0.000000, 0.000000, 0.000000, 0.000000
0.000000, 0.989402, 0.000000, 0.000000
0.000000, 0.000000, 0.000000, 0.99925
0.000000, 0.000000, 0.000000, 0.000000
0.000000, 0.000000, 0.000000, 0.000000
0.000000, 0.000000, 0.000000, 0.000000
0.000000, 0.000000, 0.000000, 0.000000
0.000000, 0.000000, 0.000000, 0.000000
1.98971, 0.000000, 0.000000, 0.000000
0.000000, 0.994782, 0.000000, 0.000000
0.000000, 0.000000, 0.000000, 0.000000
0.000000, 0.000000, 0.000000, 0.000000
0.000000, 0.000000, 0.000000, 0.000000
0.000000, 0.000000, 0.000000, 0.000000
0.000000, 0.000000, 0.000000, 0.984872
0.000000, 0.000000, 0.000000, 0.000000
0.000000, 0.000000, 0.000000, 0.000000
0.000000, 0.000000, 0.000000, 0.000000
0.000000, 0.000000, 0.000000, 0.000000
0.000000, 0.000000, 0.000000, 0.999002
0.000000, 0.000000, 0.000000, 0.000000
0.000000, 0.000000, 0.000000, 0.000000
0.000000, 0.000000, 0.000000, 0.000000
0.000000, 0.000000, 0.000000, 0.000000
0.000000, 0.000000, 0.000000, 0.000000
0.992874, 0.000000, 0.000000, 0.000000
0.000000, 0.000000, 0.000000, 0.000000
0.000000, 0.000000, 0.000000, 0.000000
0.000000, 0.000000, 0.972943, 0.000000
0.000000, 0.000000, 0.000000, 0.000000
0.000000, 0.000000, 0.000000, 0.000000
0.000000, 0.000000, 0.000000, 0.969094
0.000000, 0.000000, 0.000000, 0.000000
0.000000, 0.000000, 0.000000, 0.000000
0.000000, 0.000000, 0.000000, 0.000000
0.000000, 0.000000, 0.000000, 0.000000
0.000000, 0.000000, 0.000000, 0.000000
0.000000, 0.000000, 0.000000, 0.000000
0.000000, 0.986938, 0.000000, 0.000000
0.000000, 0.000000, 0.000000, 0.000000
0.000000, 0.000000, 0.000000, 0.985608
0.000000, 0.000000, 0.000000, 0.000000
0.000000, 0.000000, 0.991221, 0.994011
0.000000, 0.000000, 0.000000, 0.000000
0.000000, 0.000000, 0.000000, 1.00651
0.000000, 0.000000, 0.000000, 0.000000
0.986465, 0.000000, 0.000000, 0.000000
1.02276, 0.000000, 0.000000, 0.000000
0.000000, 0.000000, 0.000000, 0.000000
0.000000, 0.000000, 0.000000, 0.000000
1.03117, 0.98988, 0.000000, 0.000000
0.000000, 0.000000, 0.000000, 0.000000
0.000000, 0.000000, 0.000000, 0.000000
0.000000, 0.000000, 0.000000, 0.000000
0.000000, 0.000000, 0.970628, 0.000000
0.000000, 0.000000, 0.000000, 0.98897
0.000000, 0.000000, 0.000000, 0.000000
0.000000, 0.000000, 0.000000, 0.000000
0.000000, 0.000000, 0.000000, 0.000000
0.000000, 0.000000, 0.000000, 0.000000
0.989461, 0.000000, 0.992366, 0.000000
0.000000, 0.000000, 0.000000, 0.000000
1.00429, 0.000000, 0.000000, 0.000000
0.000000, 0.000000, 0.000000, 0.000000
0.000000, 0.000000, 0.000000, 0.000000
0.000000, 0.980345, 0.000000, 0.000000
0.000000, 0.000000, 0.000000, 0.000000
1.03777, 0.000000, 0.000000, 0.000000
0.000000, 0.000000, 0.000000, 0.000000
0.000000, 0.000000, 0.000000, 0.980527
0.000000, 0.000000, 0.000000, 0.000000
0.000000, 0.000000, 0.000000, 0.000000
0.000000, 0.000000, 0.000000, 0.000000
0.000000, 0.000000, 0.000000, 0.000000
0.000000, 0.000000, 0.963394, 0.000000
0.000000, 0.000000, 0.000000, 0.000000
0.000000, 0.000000, 0.000000, 0.000000
0.000000, 0.000000, 0.000000, 0.000000
0.000000, 0.992571, 0.99191, 0.000000
0.000000, 0.000000, 0.000000, 0.000000
0.000000, 0.000000, 0.000000, 0.000000
0.000000, 0.000000, 0.000000, 0.000000
0.000000, 0.000000, 0.983919, 0.000000
0.000000, 0.000000, 0.000000, 0.000000
0.000000, 1.00073, 0.000000, 0.000000
0.000000, 0.000000, 0.000000, 0.000000
0.000000, 0.000000, 2.02112, 0.000000
0.989522, 0.95315, 0.000000, 0.000000
0.000000, 0.000000, 0.000000, 0.000000
0.989522, 0.000000, 0.000000, 0.000000
0.000000, 0.000000, 0.000000, 0.000000
0.000000, 0.000000, 0.000000, 0.992319
0.000000, 1.00168, 0.000000, 0.000000
0.000000, 0.000000, 0.000000, 0.000000
0.000000, 0.000000, 0.000000, 0.000000
0.000000, 0.000000, 0.000000, 0.000000
0.000000, 0.000000, 0.000000, 0.000000
0.000000, 0.000000, 1.01251, 0.000000
0.000000, 0.000000, 0.000000, 0.000000
0.000000, 0.000000, 0.000000, 1.01057
0.000000, 0.000000, 0.000000, 0.000000
0.000000, 0.000000, 0.000000, 0.000000
0.000000, 0.000000, 0.000000, 1.00596
0.989461, 0.000000, 0.000000, 0.000000
0.000000, 0.000000, 0.982552, 0.000000
0.000000, 0.000000, 0.000000, 0.000000
0.000000, 0.000000, 0.000000, 0.000000
0.000000, 0.000000, 0.000000, 0.000000
0.000000, 0.000000, 0.000000, 0.000000
0.000000, 0.000000, 3.00303, 0.000000
0.000000, 0.977629, 0.000000, 0.000000
0.000000, 0.000000, 0.000000, 0.000000
0.000000, 0.000000, 0.000000, 0.000000
0.000000, 0.000000, 1.00712, 1.99178
0.000000, 1.00005, 0.988275, 0.000000
0.000000, 0.000000, 0.000000, 0.000000
0.000000, 0.000000, 0.000000, 0.000000
0.000000, 0.000000, 0.000000, 0.000000
0.000000, 1.00358, 1.01545, 0.000000
0.000000, 0.000000, 0.000000, 0.000000
0.000000, 0.000000, 0.000000, 0.000000
0.000000, 0.000000, 0.000000, 0.000000
0.000000, 0.000000, 0.000000, 1.00488
0.000000, 0.000000, 0.000000, 0.000000
0.000000, 0.000000, 0.000000, 0.000000
0.000000, 0.000000, 0.000000, 0.000000
0.000000, 0.000000, 0.000000, 0.000000
0.998276, 0.000000, 0.000000, 0.000000
0.000000, 0.000000, 0.000000, 0.000000
0.000000, 0.000000, 0.000000, 0.000000
0.000000, 0.000000, 0.000000, 0.000000
0.000000, 0.000000, 0.984966, 0.000000
1.00037, 0.000000, 0.000000, 0.000000
0.000000, 0.000000, 0.000000, 0.000000
0.000000, 0.000000, 0.000000, 0.000000
0.995699, 0.000000, 1.00165, 0.000000
0.000000, 0.972943, 0.000000, 0.000000
0.000000, 0.000000, 0.000000, 0.000000
0.000000, 0.000000, 0.000000, 0.993143
0.000000, 0.000000, 0.000000, 0.000000
0.000000, 0.000000, 0.000000, 0.000000
0.986703, 0.000000, 0.971, 0.000000
0.000000, 0.000000, 0.000000, 0.000000
0.000000, 0.000000, 0.981647, 0.000000
0.000000, 0.987688, 0.000000, 0.000000
1.03058, 0.000000, 0.000000, 0.000000
0.000000, 0.000000, 0.000000, 0.000000
0.000000, 0.000000, 0.000000, 0.000000
0.000000, 0.000000, 0.000000, 2.01334
1.01441, 0.000000, 0.000000, 0.000000
0.000000, 0.000000, 0.000000, 0.000000
0.000000, 0.985111, 0.000000, 0.000000
0.000000, 0.000000, 0.000000, 0.000000
0.000000, 0.000000, 0.000000, 0.000000
0.000000, 0.000000, 0.000000, 0.000000
0.000000, 0.000000, 0.000000, 0.000000
0.000000, 0.000000, 0.000000, 0.000000
0.000000, 0.000000, 0.000000, 0.000000
1.97039, 0.000000, 0.000000, 0.000000
0.000000, 0.000000, 0.000000, 0.000000
0.000000, 0.000000, 0.000000, 1.00761
0.000000, 0.000000, 0.000000, 0.000000
0.000000, 0.000000, 0.000000, 1.9831
0.000000, 0.987688, 2.00651, 1.00517
0.000000, 0.000000, 0.000000, 0.000000
0.000000, 0.000000, 0.978134, 0.952999
0.000000, 1.0018, 0.000000, 0.000000
0.000000, 0.992561, 0.000000, 0.978339
0.000000, 0.000000, 0.982887, 0.000000
0.000000, 0.000000, 2.00231, 0.000000
0.988569, 0.000000, 0.000000, 1.0114
0.000000, 0.987171, 0.000000, 0.000000
0.000000, 0.000000, 0.000000, 0.000000
0.000000, 0.000000, 0.000000, 0.000000
0.000000, 0.000000, 0.000000, 0.000000
0.995995, 0.000000, 0.989869, 0.000000
0.000000, 0.000000, 0.000000, 0.000000
0.000000, 0.000000, 0.994782, 0.000000
0.000000, 0.000000, 0.000000, 1.30331
0.000000, 0.000000, 2.01766, 0.000000
0.000000, 0.000000, 0.99262, 0.000000
0.000000, 0.000000, 0.000000, 0.000000
0.000000, 0.000000, 0.000000, 0.000000
0.000000, 0.000000, 0.000000, 0.000000
0.000000, 0.000000, 0.000000, 0.987508
0.979151, 0.000000, 0.000000, 0.000000
0.000000, 0.000000, 0.000000, 0.000000
0.000000, 0.000000, 0.000000, 0.000000
0.000000, 0.999659, 0.000000, 1.00329
0.000000, 0.982377, 0.000000, 0.000000
0.000000, 0.987508, 0.000000, 0.000000
0.000000, 0.000000, 0.000000, 0.000000
0.000000, 0.000000, 0.000000, 0.000000
0.000000, 0.000000, 0.994889, 0.988589
0.000000, 0.000000, 0.000000, 0.000000
0.000000, 0.000000, 0.000000, 0.998276
0.000000, 0.000000, 0.000000, 0.000000
0.986882, 0.000000, 0.000000, 0.000000
0.000000, 0.000000, 1.008, 0.991993
1.02358, 0.000000, 0.000000, 0.000000
1.01495, 1.00382, 0.000000, 0.992571
0.000000, 0.985608, 0.000000, 0.978662
0.000000, 0.000000, 0.000000, 0.000000
0.000000, 0.000000, 0.000000, 0.000000
0.000000, 1.01763, 1.00074, 0.993645
0.000000, 0.000000, 0.000000, 0.000000
0.000000, 0.000000, 0.978598, 0.000000
0.000000, 1.02828, 0.000000, 0.000000
0.000000, 3.02468, 0.000000, 0.992571
1.9834, 0.982888, 0.000000, 0.000000
0.995995, 1.00538, 0.000000, 0.000000
0.000000, 0.000000, 0.000000, 0.000000
1.00487, 0.000000, 0.000000, 0.000000
0.000000, 1.00122, 0.000000, 0.000000
0.995279, 0.000000, 0.000000, 0.000000
0.000000, 0.000000, 0.000000, 0.000000
0.000000, 0.000000, 0.994035, 0.000000
0.000000, 0.000000, 0.000000, 0.000000
0.000000, 0.000000, 0.978339, 0.000000
0.000000, 0.000000, 0.000000, 0.000000
0.000000, 0.000000, 0.000000, 0.993921
0.990361, 0.000000, 0.998468, 0.000000
1.03093, 0.990651, 0.000000, 1.00146
0.000000, 0.000000, 0.000000, 0.000000
0.981991, 0.000000, 0.991793, 1.97431
0.988942, 0.000000, 0.000000, 0.000000
0.000000, 0.000000, 0.000000, 0.982887
0.000000, 0.000000, 0.000000, 1.98813
0.000000, 0.000000, 0.000000, 0.000000
0.000000, 0.000000, 0.971, 0.000000
0.000000, 0.000000, 0.000000, 0.977426
0.000000, 0.000000, 0.000000, 0.000000
0.000000, 0.000000, 1.98933, 0.000000
0.000000, 0.000000, 0.000000, 2.01354
0.000000, 0.000000, 0.000000, 0.000000
0.000000, 0.000000, 0.000000, 0.000000
0.000000, 0.000000, 0.000000, 0.000000
1.99652, 0.000000, 0.99407, 0.000000
0.000000, 0.000000, 0.98537, 0.000000
0.000000, 1.01013, 0.000000, 1.02859
0.000000, 0.000000, 0.000000, 0.000000
0.000000, 1.0068, 0.000000, 1.95598
0.000000, 1.9933, 0.000000, 0.000000
0.000000, 0.000000, 0.000000, 0.000000
0.000000, 0.000000, 0.000000, 2.00171
0.000000, 0.000000, 0.000000, 0.000000
0.99925, 0.000000, 1.03064, 0.000000
0.000000, 0.978662, 0.000000, 0.000000
2.02178, 0.000000, 0.000000, 0.999132
0.000000, 0.000000, 1.97866, 0.000000
0.000000, 0.000000, 0.000000, 0.999482
0.000000, 0.000000, 0.000000, 0.000000
0.000000, 0.989299, 0.000000, 0.983691
1.00076, 0.000000, 0.000000, 0.000000
0.000000, 0.000000, 1.02508, 0.000000
0.000000, 0.000000, 0.000000, 0.000000
0.000000, 0.000000, 0.000000, 0.993514
0.000000, 0.000000, 0.000000, 0.000000
0.000000, 0.000000, 0.000000, 2.00443
0.000000, 0.000000, 0.000000, 0.000000
0.000000, 0.000000, 0.000000, 0.989461
0.000000, 0.000000, 0.000000, 0.000000
0.000000, 0.984319, 1.00651, 0.000000
0.000000, 0.000000, 0.000000, 0.988589
0.000000, 0.000000, 0.000000, 1.00024
2.025, 0.000000, 2.13135, 0.000000
0.000000, 0.000000, 1.00595, 0.000000
0.000000, 0.000000, 0.000000, 0.000000
1.00617, 0.978598, 0.000000, 0.990207
0.996004, 0.996913, 0.000000, 0.000000
0.000000, 1.0092, 0.000000, 0.000000
0.000000, 0.000000, 0.977835, 0.000000
0.000000, 0.976708, 1.01763, 0.000000
0.000000, 0.000000, 0.000000, 0.000000
0.000000, 0.000000, 0.000000, 0.000000
0.000000, 0.000000, 1.02559, 0.995168
0.974124, 0.969502, 0.000000, 0.000000
0.978598, 0.979151, 0.000000, 0.000000
0.000000, 1.98427, 0.000000, 1.00165
0.991218, 0.000000, 0.995193, 0.000000
0.986, 1.98115, 0.997827, 0.000000
0.000000, 0.000000, 0.000000, 0.989608
0.000000, 0.000000, 0.000000, 0.000000
0.000000, 0.000000, 0.000000, 0.977629
0.000000, 1.02498, 0.000000, 0.000000
0.000000, 0.000000, 0.000000, 0.000000
0.000000, 0.000000, 1.03777, 0.993514
0.975575, 0.000000, 1.98799, 0.000000
0.000000, 1.00007, 0.000000, 0.988942
1.00552, 0.000000, 0.000000, 0.000000
0.000000, 0.994035, 0.000000, 0.000000
0.988009, 0.000000, 1.002, 0.000000
0.000000, 1.00583, 0.000000, 0.000000
0.000000, 0.000000, 0.000000, 1.99634
0.994152, 0.000000, 0.995844, 0.000000
1.02371, 0.998546, 0.000000, 0.000000
0.000000, 0.984386, 0.995279, 0.000000
0.000000, 0.97891, 2.06012, 0.000000
2.0004, 0.000000, 0.997718, 0.990065
0.999261, 0.998049, 0.000000, 0.000000
0.000000, 0.000000, 0.000000, 0.000000
0.000000, 0.994152, 2.96069, 0.990101
2.00409, 0.000000, 1.01441, 0.982542
0.000000, 0.000000, 0.000000, 0.000000
0.000000, 0.000000, 1.00109, 0.000000
0.995073, 0.000000, 0.000000, 1.98067
0.000000, 0.000000, 0.000000, 0.991993
2.00809, 0.000000, 0.000000, 0.000000
0.970123, 0.000000, 0.000000, 0.000000
0.000000, 0.000000, 0.000000, 0.983593
1.00408, 0.000000, 0.997827, 0.000000
0.000000, 0.000000, 0.000000, 0.000000
0.000000, 1.02453, 0.000000, 0.000000
0.000000, 0.000000, 0.000000, 0.000000
0.000000, 0.000000, 0.000000, 0.000000
0.000000, 0.000000, 0.000000, 0.000000
0.000000, 1.03082, 0.000000, 0.984659
0.000000, 0.000000, 0.000000, 0.000000
1.99059, 0.000000, 0.000000, 0.000000
0.000000, 0.000000, 0.000000, 0.000000
0.000000, 1.0284, 0.000000, 1.9854
0.000000, 1.01424, 0.990986, 0.000000
0.000000, 0.000000, 0.000000, 0.998874
1.99463, 0.000000, 0.000000, 0.000000
0.998924, 1.96995, 2.00724, 0.000000
0.000000, 0.000000, 0.000000, 1.98206
0.960999, 0.000000, 0.000000, 0.000000
0.000000, 1.00193, 0.000000, 0.000000
0.998102, 2.01762, 0.000000, 1.02767
0.000000, 0.000000, 0.000000, 0.980693
1.98639, 0.986473, 0.000000, 2.04574
0.000000, 0.000000, 0.000000, 0.993645
1.97073, 0.000000, 1.01753, 2.0003
0.985361, 0.000000, 0.000000, 0.000000
1.00478, 0.000000, 0.000000, 0.000000
1.99629, 0.979389, 0.000000, 0.993143
0.000000, 0.968574, 0.983593, 1.01176
0.000000, 0.000000, 0.996403, 0.000000
0.990596, 0.990065, 2.02756, 0.970628
0.996004, 0.977417, 0.000000, 0.999183
2.99514, 0.000000, 0.985318, 0.000000
0.993326, 2.00667, 0.998226, 0.000000
0.000000, 1.01763, 0.986088, 1.96747
0.000000, 2.99767, 0.995216, 0.98937
0.993782, 1.98581, 1.01057, 0.989273
0.000000, 1.002, 0.000000, 3.01076
2.01861, 0.000000, 1.97993, 1.98592
0.000000, 0.981773, 0.997652, 0.000000
0.000000, 1.02258, 0.000000, 0.983508
1.02188, 0.000000, 1.99146, 1.99376
0.995864, 0.987345, 0.984784, 0.000000
3.00743, 0.000000, 3.00163, 0.000000
0.993645, 0.982386, 2.00051, 4.04503
2.04307, 4.98483, 3.98585, 2.00224
3.95853, 5.00445, 0.978306, 0.975459
2.00444, 0.000000, 0.000000, 0.000000
1.9627, 1.01336, 2.96781, 1.98392
3.00439, 1.02824, 4.017, 2.02554
3.97893, 2.03604, 4.99882, 0.991859
0.999444, 1.0063, 0.999505, 2.00833
3.97147, 3.01895, 0.995347, 3.97327
2.9989, 0.986822, 1.01606, 0.000000
2.01105, 0.995216, 0.000000, 1.00583
0.000000, 0.000000, 0.971691, 2.01872
0.965791, 2.98152, 1.99283, 0.982542
0.995864, 0.968574, 1.0045, 2.00247
1.01495, 0.980006, 0.999407, 0.000000
2.96724, 1.9832, 2.00237, 4.93469
0.000000, 0.000000, 0.989461, 1.15151
1.98268, 3.00972, 2.01157, 1.00084
0.998308, 0.992886, 0.000000, 2.9946
4.01765, 2.99498, 0.983989, 4.00882
2.98005, 2.98242, 4.98448, 2.98504
1.98297, 2.97746, 1.00488, 0.000000
2.98742, 5.95155, 1.00449, 2.97267
1.97692, 4.0207, 7.97437, 3.98226
0.000000, 1.02066, 1.01445, 0.000000
6.00779, 8.96372, 2.96525, 2.97322
1.98336, 3.93541, 7.99779, 4.98552
3.93473, 3.98318, 4.00716, 5.95101
5.94874, 2.03091, 1.99442, 8.9412
6.99586, 2.96973, 3.99873, 4.95124
3.97703, 1.96229, 3.97696, 4.00412
6.98967, 3.96408, 4.01755, 3.01094
5.97425, 6.93559, 3.02308, 6.99621
3.95042, 5.98406, 4.96889, 2.03425
11.9272, 7.92339, 7.89682, 13.9363
6.94173, 10.9662, 5.96089, 7.00768
6.9605, 17.9081, 7.9685, 12.8888
13.8749, 10.9806, 4.96339, 6.98236
15.976, 9.95668, 7.9727, 12.9191
10.9818, 12.0303, 11.9521, 9.96112
15.9917, 15.8734, 13.9319, 14.9892
16.8828, 21.9319, 20.8959, 29.8902
27.9297, 41.8296, 26.7505, 41.7886
54.8156, 74.786, 105.92, 148.441
241.229, 406.484, 758.609, 1357.54
2698.85, 4408.41, 3407.21, 1663.44
1298.71, 1884.99, 2584.41, 4985.9
5797.99, 3472.01, 2091.81, 1264.16
590.785, 237.41, 98.8567, 55.9021
42.0018, 34.9449, 21.9562, 24.0047
17.9228, 19.8687, 19.0525, 9.99942
17.0053, 7.99393, 5.93005, 13.8843
8.98663, 11.9893, 9.05729, 5.95877
15.9276, 8.04257, 10.8613, 7.95081
13.1573, 5.94451, 4.96858, 9.852
5.97596, 5.01234, 5.9657, 6.99637
6.07283, 6.99915, 4.99306, 4.98429
10.0259, 2.99304, 7.96475, 5.01177
6.91811, 7.90654, 6.9664, 5.98418
9.99866, 4.9997, 3.9465, 6.01484
4.98998, 4.99888, 3.98156, 0.000000
2.00451, 3.97345, 3.98616, 5.99512
2.00236, 3.91031, 0.985137, 2.00486
4.9554, 2.04193, 7.06454, 1.998
4.94442, 3.96675, 2.99919, 3.95349
4.01718, 1.98129, 6.88529, 2.01349
3.00604, 2.02199, 6.00488, 3.98396
4.92536, 0.000000, 6.02342, 3.97478
3.00796, 5.98789, 1.97204, 1.00914
3.00496, 0.997335, 5.02551, 3.00324
0.995193, 4.02244, 4.00892, 1.01009
0.000000, 4.96796, 0.980922, 3.98969
2.98175, 1.99599, 0.981773, 0.000000
3.02655, 1.00377, 0.961224, 1.95362
5.98308, 2.02575, 2.97811, 0.995434
0.000000, 3.95368, 1.00858, 4.98108
1.95603, 1.97109, 2.01201, 2.01178
0.980265, 0.000000, 2.01547, 0.000000
2.01831, 0.000000, 1.98554, 0.000000
1.01495, 0.000000, 2.01483, 1.98397
2.00882, 4.01, 0.000000, 1.02859
0.000000, 1.00122, 0.988787, 1.99136
3.00772, 2.98074, 0.000000, 3.02306
1.01996, 0.000000, 0.970327, 0.000000
0.958477, 1.9905, 2.00151, 0.000000
1.03082, 0.980244, 2.00043, 0.997966
1.03011, 3.00568, 0.000000, 1.99237
2.94362, 2.0038, 1.01345, 5.02542
2.98676, 0.979422, 1.96365, 0.994689
2.99542, 2.00126, 0.969094, 3.00185
0.000000, 0.000000, 2.01359, 0.995372
0.000000, 0.000000, 0.974124, 2.98462
1.01492, 1.9605, 0.000000, 1.97379
0.000000, 3.02621, 2.00622, 0.989821
0.000000, 1.99116, 2.99571, 1.98158
0.996545, 0.000000, 1.98573, 0.975459
0.995516, 3.95054, 0.996983, 0.985361
0.980265, 0.000000, 0.000000, 2.01033
0.997652, 0.000000, 1.03011, 2.96168
3.02633, 1.01545, 1.98655, 0.000000
1.00539, 1.00701, 2.00726, 0.996212
0.996906, 0.000000, 0.000000, 0.982569
1.002, 0.000000, 3.03596, 0.000000
0.000000, 3.9871, 1.98126, 3.01382
1.00265, 0.000000, 1.99873, 2.95963
1.98971, 0.000000, 2.01376, 0.990254
1.99473, 2.01592, 0.000000, 2.00318
3.02538, 1.99488, 0.000000, 0.986182
3.01103, 2.03534, 0.000000, 0.000000
1.95579, 0.000000, 0.000000, 0.000000
0.968574, 1.95299, 0.977736, 0.000000
2.01976, 0.000000, 1.98042, 1.98415
1.98232, 0.99552, 1.01057, 1.01014
0.982545, 1.03032, 2.00518, 1.99666
0.978767, 1.92348, 2.02821, 1.00982
0.000000, 1.01176, 1.98369, 1.01319
1.99009, 0.994484, 1.00259, 0.000000
0.000000, 0.000000, 1.98215, 1.99284
1.01495, 0.997464, 0.988569, 0.000000
2.03481, 1.00837, 0.992427, 0.000000
1.98958, 0.998308, 2.05035, 0.000000
0.998328, 0.993645, 0.981773, 0.000000
0.000000, 0.000000, 0.000000, 2.01519
2.02733, 0.000000, 0.990065, 0.000000
1.9961, 0.000000, 0.000000, 1.00725
1.98489, 0.989742, 0.000000, 1.98157
0.989105, 1.01009, 0.000000, 0.000000
1.00812, 0.000000, 2.04504, 1.01765
0.000000, 0.990254, 1.98701, 0.969094
1.98159, 0.999085, 0.000000, 0.989299
0.000000, 0.000000, 0.000000, 0.987508
0.000000, 0.000000, 2.99794, 0.000000
0.000000, 0.000000, 0.000000, 3.01146
1.00606, 1.00486, 0.000000, 0.983989
0.000000, 0.992222, 0.000000, 0.000000
0.981647, 1.97362, 0.991596, 0.991785
1.00499, 0.000000, 0.000000, 0.97891
1.96516, 0.991445, 1.0085, 3.97249
1.99272, 0.000000, 0.000000, 1.01009
4.03827, 0.000000, 0.000000, 0.000000
0.000000, 1.03375, 0.000000, 1.97283
0.994354, 0.994135, 2.01342, 0.000000
0.000000, 1.99203, 1.02258, 0.000000
2.01127, 0.000000, 0.000000, 1.01164
0.000000, 0.999482, 0.000000, 1.00449
0.992146, 2.02534, 1.01065, 0.000000
0.000000, 0.979422, 0.995193, 0.000000
0.000000, 0.000000, 0.997803, 1.01215
1.00436, 0.000000, 0.000000, 0.98691
0.000000, 0.000000, 1.00382, 0.000000
0.980006, 0.000000, 0.991943, 0.000000
0.000000, 0.995193, 2.00675, 0.000000
1.0284, 0.989461, 0.999482, 0.000000
0.000000, 1.01057, 0.000000, 0.000000
0.000000, 0.000000, 0.000000, 0.000000
1.98988, 0.000000, 0.000000, 0.000000
0.993788, 0.000000, 2.01674, 0.000000
0.000000, 1.0198, 0.000000, 0.000000
0.993375, 0.997966, 0.000000, 0.000000
0.000000, 0.000000, 1.03269, 0.000000
0.000000, 0.000000, 0.990874, 0.000000
0.000000, 0.000000, 0.000000, 0.000000
1.02859, 0.000000, 0.000000, 0.000000
0.000000, 1.00139, 0.985519, 0.000000
0.999002, 0.000000, 0.000000, 0.999261
0.000000, 0.000000, 0.994251, 0.000000
0.000000, 0.000000, 0.000000, 0.980244
2.00146, 0.000000, 0.000000, 0.000000
0.000000, 0.000000, 0.000000, 0.984872
2.97275, 0.000000, 0.990386, 0.000000
0.000000, 2.00146, 2.96935, 0.989402
0.999618, 0.000000, 0.000000, 0.000000
1.98451, 0.978134, 1.00896, 0.000000
0.000000, 0.998308, 0.000000, 0.000000
0.000000, 0.000000, 0.994251, 2.98067
0.000000, 0.000000, 0.983593, 2.00707
0.000000, 0.000000, 0.000000, 0.000000
0.000000, 0.000000, 0.000000, 0.000000
1.00007, 0.000000, 0.000000, 0.000000
0.000000, 0.000000, 0.000000, 1.00595
1.02963, 0.000000, 0.000000, 0.000000
0.991414, 0.989021, 0.000000, 1.00098
0.000000, 0.000000, 0.000000, 0.000000
0.000000, 1.01585, 0.000000, 0.000000
0.000000, 0.000000, 0.000000, 0.988794
0.000000, 0.000000, 0.98937, 0.994782
0.000000, 2.97607, 0.000000, 0.000000
1.00596, 0.000000, 0.994135, 0.000000
0.000000, 1.93421, 0.000000, 0.972822
0.000000, 0.000000, 0.000000, 1.00092
0.987746, 0.979245, 0.000000, 0.000000
0.000000, 1.01009, 1.94321, 0.987035
2.01511, 1.99434, 0.000000, 1.01715
0.000000, 0.982066, 0.000000, 0.000000
1.04108, 0.996004, 0.000000, 0.000000
0.000000, 1.00761, 0.000000, 0.000000
0.000000, 0.000000, 0.000000, 0.992319
0.995516, 0.000000, 0.000000, 0.000000
2.00193, 2.02579, 1.00594, 1.03407
0.000000, 1.997, 1.00505, 0.000000
0.992427, 0.000000, 0.000000, 0.000000
0.000000, 0.000000, 0.994251, 0.000000
0.000000, 0.000000, 0.000000, 0.97911
1.00217, 0.000000, 1.96961, 0.000000
0.982377, 0.000000, 0.000000, 0.000000
0.993789, 0.000000, 0.000000, 0.000000
0.000000, 0.000000, 0.000000, 0.993645
0.000000, 0.000000, 0.000000, 0.000000
0.000000, 0.000000, 0.000000, 0.000000
0.000000, 0.000000, 0.998603, 0.000000
0.000000, 1.01009, 0.000000, 1.01161
0.000000, 0.000000, 0.000000, 0.965791
0.000000, 0.000000, 0.000000, 0.989297
0.000000, 0.000000, 0.000000, 0.994369
0.000000, 2.04938, 1.02586, 0.000000
0.000000, 1.3299, 0.000000, 0.000000
0.000000, 0.986584, 0.000000, 0.000000
0.000000, 0.000000, 0.000000, 1.98308
0.000000, 0.000000, 0.000000, 0.000000
0.000000, 0.000000, 0.996463, 1.03092
0.000000, 0.000000, 0.999444, 1.00259
0.000000, 0.987345, 0.000000, 0.000000
0.000000, 0.000000, 0.000000, 0.000000
1.0085, 0.000000, 0.974124, 0.000000
0.000000, 0.000000, 0.000000, 0.000000
0.000000, 1.00917, 0.000000, 0.982681
0.985519, 0.000000, 0.995067, 0.000000
0.982552, 2.00536, 0.000000, 0.975459
0.000000, 0.000000, 0.000000, 0.000000
0.000000, 0.000000, 0.000000, 0.000000
0.000000, 0.000000, 0.000000, 0.000000
0.000000, 0.000000, 0.000000, 0.000000
0.000000, 0.000000, 0.000000, 0.989461
0.000000, 2.02965, 0.000000, 0.000000
0.000000, 0.000000, 0.000000, 0.000000
0.000000, 1.9789, 0.000000, 0.000000
0.000000, 1.01052, 2.01232, 1.01545
0.000000, 0.000000, 0.000000, 0.000000
1.00076, 0.000000, 1.00387, 0.000000
0.998965, 1.01057, 0.000000, 1.01277
1.00278, 0.000000, 0.000000, 0.000000
0.000000, 1.00189, 0.000000, 0.000000
0.000000, 0.000000, 0.000000, 0.994035
0.000000, 1.00187, 0.973593, 0.000000
0.000000, 0.000000, 0.991445, 0.000000
0.000000, 0.000000, 0.982225, 0.000000
0.000000, 0.993959, 0.000000, 0.000000
0.000000, 0.000000, 0.000000, 0.000000
0.995216, 0.000000, 1.01492, 0.000000
0.000000, 0.000000, 0.989807, 0.000000
0.000000, 0.000000, 0.000000, 0.000000
0.000000, 1.00476, 0.000000, 0.000000
0.981658, 0.000000, 0.000000, 0.000000
0.997966, 0.000000, 0.000000, 0.000000
0.000000, 0.000000, 0.987345, 0.987035
0.000000, 0.000000, 0.000000, 0.999002
0.000000, 1.00265, 0.000000, 0.000000
0.000000, 0.000000, 0.000000, 0.000000
0.98114, 0.000000, 0.000000, 0.000000
0.000000, 0.000000, 0.000000, 0.997094
0.000000, 0.000000, 0.000000, 0.000000
0.000000, 0.991793, 0.000000, 0.000000
0.000000, 0.000000, 0.000000, 0.000000
0.000000, 0.000000, 0.000000, 0.985519
1.00776, 0.000000, 0.000000, 0.000000
0.000000, 0.986182, 0.000000, 0.000000
0.000000, 1.00682, 0.000000, 0.000000
0.971059, 0.000000, 0.000000, 0.000000
1.9734, 0.000000, 0.972822, 0.000000
1.01009, 0.000000, 0.000000, 0.000000
0.966924, 0.000000, 0.000000, 0.000000
0.996102, 0.000000, 0.000000, 0.000000
0.000000, 0.000000, 0.000000, 0.000000
0.000000, 0.000000, 0.000000, 0.000000
0.000000, 1.02767, 0.988163, 0.000000
0.000000, 1.02963, 0.000000, 0.000000
0.000000, 1.01364, 0.000000, 0.000000
0.983989, 0.994484, 2.00215, 0.000000
0.000000, 0.000000, 0.000000, 0.000000
0.995985, 1.98937, 0.000000, 0.000000
1.02008, 0.984319, 0.000000, 0.000000
0.000000, 0.000000, 0.000000, 0.000000
0.990701, 0.000000, 0.000000, 1.00168
0.000000, 0.000000, 0.000000, 0.967456
0.000000, 0.96292, 0.000000, 0.994962
0.000000, 0.000000, 0.000000, 0.000000
0.979151, 0.000000, 0.000000, 0.000000
0.000000, 0.000000, 0.997875, 0.000000
0.000000, 0.982097, 1.00259, 0.000000
0.000000, 0.000000, 0.000000, 0.000000
0.000000, 0.996711, 0.000000, 0.000000
0.000000, 0.96292, 1.98797, 0.000000
0.000000, 0.000000, 2.94068, 0.000000
0.000000, 0.000000, 0.000000, 1.03117
0.990386, 0.000000, 1.0005, 1.30331
0.000000, 0.000000, 0.000000, 0.000000
0.000000, 0.000000, 0.000000, 1.01441
0.981862, 0.000000, 1.02532, 0.991218
0.000000, 0.000000, 0.000000, 0.000000
0.000000, 0.993812, 0.000000, 0.000000
0.000000, 0.990651, 0.000000, 0.991793
0.000000, 0.989273, 0.992146, 2.00191
0.000000, 0.000000, 0.000000, 0.000000
1.01013, 0.000000, 0.000000, 0.000000
0.985137, 0.000000, 0.000000, 0.000000
0.983874, 0.998526, 0.000000, 1.00476
0.000000, 0.000000, 1.01014, 0.000000
0.000000, 0.000000, 0.000000, 0.000000
0.000000, 0.000000, 0.000000, 0.000000
0.000000, 0.000000, 0.000000, 0.000000
1.00092, 0.000000, 0.000000, 0.000000
0.000000, 1.02963, 0.000000, 1.01936
0.000000, 0.976949, 0.000000, 0.000000
0.000000, 0.000000, 0.000000, 0.000000
0.000000, 0.000000, 0.000000, 0.000000
0.000000, 0.000000, 0.000000, 0.000000
0.000000, 0.000000, 1.00033, 0.000000
1.00886, 0.000000, 0.000000, 0.000000
0.000000, 0.000000, 2.00125, 0.000000
0.000000, 0.998446, 0.967456, 1.00377
0.000000, 0.971294, 0.000000, 1.99954
1.01098, 0.000000, 0.000000, 0.000000
0.000000, 0.000000, 0.000000, 1.94836
0.000000, 0.000000, 0.000000, 1.99825
0.990101, 0.000000, 0.000000, 0.000000
0.99262, 0.000000, 1.97451, 0.000000
0.997476, 0.000000, 1.02202, 0.000000
1.00387, 0.000000, 0.000000, 0.989742
1.00856, 0.000000, 0.000000, 0.000000
0.000000, 1.99039, 0.000000, 0.000000
0.000000, 0.982225, 0.991943, 0.000000
1.01616, 0.000000, 0.000000, 0.000000
0.999444, 0.000000, 1.00278, 0.000000
0.000000, 0.000000, 0.000000, 0.000000
0.982681, 0.000000, 0.000000, 0.973452
0.000000, 0.000000, 0.000000, 0.988787
0.986179, 0.000000, 0.999809, 0.000000
0.000000, 0.000000, 0.982888, 0.000000
1.01553, 1.003, 0.000000, 0.995891
0.000000, 1.01009, 0.000000, 2.00319
0.000000, 0.000000, 0.000000, 0.000000
0.998924, 0.000000, 0.000000, 0.000000
0.000000, 0.000000, 0.000000, 0.000000
0.000000, 0.000000, 0.000000, 0.000000
0.994333, 0.000000, 0.971294, 0.000000
0.000000, 0.99741, 0.000000, 0.000000
0.000000, 0.000000, 0.000000, 1.01173
0.000000, 2.00641, 0.000000, 0.000000
0.000000, 0.000000, 0.000000, 0.000000
0.000000, 0.000000, 0.000000, 0.000000
0.000000, 0.994105, 0.000000, 0.000000
0.985361, 0.967456, 0.000000, 0.000000
0.998446, 0.000000, 0.989438, 0.000000
0.000000, 0.000000, 1.04108, 0.000000
0.000000, 1.01336, 0.000000, 0.000000
0.000000, 0.000000, 0.000000, 0.000000
0.000000, 2.00965, 0.000000, 0.000000
0.000000, 0.000000, 0.991943, 0.000000
0.000000, 0.000000, 0.000000, 1.01545
0.000000, 2.00798, 0.000000, 0.000000
0.000000, 0.000000, 0.000000, 0.000000
0.000000, 0.000000, 0.000000, 0.000000
0.000000, 0.000000, 0.000000, 0.000000
0.000000, 0.000000, 0.000000, 0.000000
0.982377, 0.000000, 0.000000, 0.000000
0.000000, 3.00057, 0.000000, 0.000000
0.000000, 2.00052, 1.97714, 0.000000
0.000000, 0.000000, 0.000000, 0.000000
0.000000, 0.000000, 1.00438, 0.000000
0.000000, 0.000000, 1.00073, 0.000000
1.97141, 0.000000, 0.000000, 0.000000
1.0092, 0.984821, 1.02963, 0.000000
0.000000, 0.000000, 0.000000, 1.00394
0.983878, 0.000000, 1.98291, 0.992769
0.000000, 0.000000, 0.000000, 0.000000
0.000000, 0.000000, 0.000000, 0.000000
0.000000, 0.000000, 0.000000, 0.000000
0.000000, 0.994889, 0.000000, 0.000000
0.000000, 0.000000, 0.000000, 0.000000
0.000000, 0.978339, 0.000000, 1.01495
1.99344, 0.000000, 0.000000, 0.000000
0.000000, 1.98741, 0.000000, 0.995995
0.000000, 0.000000, 0.000000, 0.000000
0.000000, 0.000000, 0.000000, 0.992874
0.990651, 0.000000, 0.000000, 0.000000
0.000000, 0.000000, 0.000000, 0.000000
0.000000, 0.000000, 0.000000, 0.000000
1.1415, 0.000000, 0.000000, 0.000000
0.000000, 1.00701, 0.000000, 0.000000
0.000000, 0.000000, 0.000000, 0.000000
0.000000, 0.000000, 0.992561, 0.980006
0.000000, 0.000000, 0.000000, 0.000000
0.000000, 0.000000, 0.000000, 0.000000
0.000000, 0.000000, 0.000000, 0.000000
0.000000, 1.00583, 0.000000, 0.000000
0.000000, 0.000000, 0.000000, 0.000000
0.000000, 1.00024, 0.000000, 0.000000
0.000000, 0.997709, 1.99212, 0.000000
1.00329, 0.982552, 0.000000, 0.000000
0.000000, 0.000000, 0.978134, 0.000000
0.000000, 0.000000, 1.01765, 0.000000
0.000000, 2.01337, 0.998924, 0.000000
0.000000, 0.000000, 0.000000, 0.000000
0.000000, 3.00432, 0.000000, 0.000000
0.000000, 0.000000, 0.000000, 0.000000
0.967456, 0.976708, 0.997094, 0.000000
0.952999, 0.995341, 0.000000, 1.02997
0.000000, 0.000000, 0.981647, 0.000000
0.000000, 1.0018, 0.000000, 0.000000
1.00287, 1.98937, 0.975459, 0.000000
0.000000, 1.95009, 0.000000, 0.000000
0.000000, 0.000000, 0.000000, 1.00517
0.000000, 0.000000, 0.000000, 0.988942
1.03007, 0.978134, 0.000000, 0.000000
0.000000, 0.000000, 0.974622, 0.000000
0.000000, 0.984319, 0.000000, 0.000000
0.983878, 0.986875, 0.000000, 1.00168
0.000000, 0.000000, 0.000000, 0.983508
0.000000, 0.000000, 0.000000, 0.000000
0.989273, 0.000000, 0.982887, 0.000000
0.000000, 0.000000, 0.000000, 0.000000
0.000000, 0.000000, 0.000000, 0.994251
1.9787, 1.00329, 2.01299, 0.000000
0.000000, 0.000000, 0.000000, 1.98539
0.000000, 0.000000, 1.00095, 0.000000
0.000000, 1.98202, 0.000000, 0.000000
0.000000, 0.998067, 0.994354, 2.9734
0.000000, 1.0005, 0.000000, 0.000000
0.998266, 1.00033, 0.989225, 0.996545
0.000000, 0.000000, 1.98791, 1.023
0.000000, 0.000000, 0.980006, 0.000000
0.000000, 0.000000, 0.000000, 1.00575
0.000000, 0.995864, 0.000000, 0.986465
0.000000, 0.000000, 0.000000, 0.000000
0.988589, 0.000000, 1.96891, 0.000000
0.000000, 0.000000, 2.00285, 0.000000
0.000000, 1.99601, 1.01273, 0.000000
0.000000, 0.000000, 0.000000, 0.995067
2.91516, 0.000000, 0.000000, 0.000000
1.00539, 0.000000, 0.000000, 0.976638
0.000000, 0.000000, 0.000000, 0.000000
0.000000, 0.000000, 2.00558, 0.000000
1.02077, 0.000000, 0.997665, 0.000000
0.000000, 0.000000, 2.04795, 0.000000
0.000000, 0.000000, 0.000000, 0.000000
0.000000, 0.000000, 0.000000, 0.000000
0.984319, 0.000000, 0.000000, 1.00886
0.000000, 0.000000, 0.000000, 0.000000
0.000000, 0.000000, 1.00486, 0.992886
0.000000, 0.000000, 0.000000, 0.992561
0.000000, 0.000000, 0.000000, 0.000000
0.000000, 0.000000, 0.000000, 0.000000
0.000000, 0.000000, 0.000000, 0.000000
0.000000, 0.000000, 0.000000, 0.000000
0.000000, 0.000000, 0.982542, 0.000000
0.000000, 0.000000, 0.000000, 0.000000
0.000000, 0.000000, 0.000000, 0.999659
0.000000, 1.95026, 0.000000, 0.000000
0.983691, 0.000000, 0.000000, 0.998067
0.99191, 0.981196, 0.000000, 1.97965
0.000000, 1.00109, 0.000000, 0.000000
0.000000, 0.993219, 1.00186, 0.000000
0.000000, 0.000000, 0.000000, 1.00886
0.000000, 0.970123, 0.000000, 0.000000
0.995018, 0.000000, 0.000000, 0.000000
2.00757, 0.997464, 0.000000, 1.99838
0.000000, 0.000000, 0.000000, 0.978134
0.000000, 0.000000, 0.000000, 0.000000
0.000000, 0.000000, 0.000000, 0.990386
0.000000, 0.000000, 0.000000, 0.972943
0.985519, 0.000000, 0.999809, 1.01996
1.00786, 0.000000, 0.000000, 0.99786
0.000000, 0.000000, 0.000000, 0.978662
1.97814, 0.000000, 0.000000, 0.000000
0.000000, 0.000000, 0.000000, 1.98647
0.000000, 1.01098, 0.000000, 0.000000
0.000000, 0.000000, 0.000000, 0.000000
0.000000, 0.000000, 1.00438, 0.000000
0.991943, 0.000000, 0.997875, 0.000000
0.000000, 0.000000, 0.000000, 0.000000
0.000000, 0.000000, 0.000000, 0.000000
0.000000, 0.998965, 0.000000, 0.982681
0.977426, 2.9917, 0.000000, 0.000000
0.994105, 0.000000, 0.000000, 0.000000
0.000000, 0.000000, 0.000000, 0.000000
1.00076, 0.000000, 0.992571, 0.000000
1.01373, 0.000000, 0.000000, 0.970123
0.000000, 0.986584, 0.000000, 1.00165
1.98822, 0.000000, 0.000000, 0.000000
0.000000, 0.000000, 0.000000, 0.000000
1.00617, 0.000000, 0.000000, 0.000000
0.995985, 0.000000, 0.000000, 0.000000
0.000000, 0.000000, 1.00259, 0.976638
0.989438, 0.996913, 1.01014, 0.000000
0.000000, 0.000000, 0.000000, 0.000000
0.994251, 0.000000, 0.000000, 0.977835
0.000000, 0.000000, 0.000000, 0.000000
0.000000, 1.00982, 0.000000, 0.000000
0.000000, 2.02819, 0.000000, 0.000000
0.000000, 0.000000, 1.9713, 0.000000
0.000000, 0.000000, 0.000000, 0.000000
1.00831, 1.9629, 0.000000, 0.998102
1.02638, 0.000000, 0.000000, 0.000000
0.000000, 0.000000, 0.000000, 0.000000
0.983123, 0.000000, 0.000000, 0.997803
0.000000, 0.000000, 0.000000, 1.0063
0.000000, 0.000000, 0.000000, 0.000000
0.98706, 0.000000, 0.000000, 0.000000
1.00896, 0.000000, 0.000000, 0.991158
0.000000, 0.000000, 0.000000, 0.000000
0.000000, 0.000000, 0.000000, 0.000000
0.000000, 0.000000, 0.999444, 0.000000
0.000000, 0.000000, 0.000000, 0.000000
0.000000, 0.000000, 0.000000, 0.988589
0.000000, 0.000000, 0.000000, 0.000000
0.000000, 0.000000, 0.980385, 0.000000
1.01345, 0.000000, 0.000000, 0.000000
1.96644, 0.000000, 0.000000, 0.985137
0.000000, 0.000000, 0.000000, 2.98673
0.000000, 0.000000, 0.000000, 0.000000
0.000000, 0.000000, 0.000000, 0.997966
0.000000, 0.000000, 0.000000, 0.000000
0.000000, 0.000000, 1.00015, 0.000000
0.994152, 0.000000, 0.000000, 0.98897
0.968574, 0.000000, 0.980006, 1.96341
0.99741, 0.000000, 1.01224, 0.992874
0.000000, 0.996948, 0.000000, 1.00394
0.000000, 0.000000, 0.000000, 0.996545
0.982681, 0.000000, 0.000000, 0.000000
0.000000, 0.000000, 0.000000, 0.000000
0.000000, 0.991445, 0.000000, 0.000000
0.000000, 0.975575, 0.98341, 0.000000
0.000000, 0.993866, 0.000000, 0.972822
0.000000, 0.000000, 0.000000, 0.000000
1.0092, 2.00641, 0.988589, 0.970123
0.000000, 0.99354, 0.000000, 0.000000
0.000000, 0.000000, 0.000000, 0.000000
0.000000, 0.000000, 0.000000, 0.000000
1.00236, 0.998446, 0.000000, 0.000000
0.996948, 1.00076, 0.000000, 0.000000
1.00076, 2.00243, 1.00033, 1.03064
0.000000, 0.000000, 0.000000, 0.995525
1.00207, 0.000000, 0.000000, 0.000000
0.000000, 0.000000, 0.000000, 0.000000
0.000000, 0.000000, 0.000000, 0.000000
0.000000, 0.000000, 0.998446, 1.98931
1.00024, 0.000000, 0.000000, 0.000000
0.000000, 0.000000, 0.000000, 0.000000
0.994251, 0.000000, 0.000000, 0.000000
0.000000, 0.000000, 0.000000, 0.000000
0.982888, 0.000000, 0.000000, 0.000000
0.000000, 0.997875, 0.000000, 0.000000
0.994484, 0.000000, 0.000000, 0.000000
0.000000, 0.000000, 0.000000, 0.000000
2.00948, 0.000000, 0.000000, 1.97176
0.000000, 0.000000, 0.995279, 1.00162
0.000000, 0.000000, 0.000000, 0.000000
0.000000, 0.000000, 1.0284, 0.000000
1.00539, 0.000000, 1.00168, 1.99956
0.000000, 0.000000, 0.000000, 0.992769
0.000000, 0.996004, 0.000000, 0.000000
0.000000, 2.00084, 0.000000, 0.000000
0.000000, 0.000000, 0.000000, 0.000000
0.999719, 0.000000, 0.999482, 0.000000
0.000000, 0.000000, 1.01147, 0.000000
0.000000, 3.00967, 0.000000, 0.994354
1.00005, 0.985255, 0.987345, 0.000000
0.000000, 0.990596, 0.000000, 0.9942
0.000000, 0.000000, 0.000000, 0.000000
0.000000, 0.000000, 0.000000, 1.00395
1.0092, 1.00196, 0.985436, 1.30331
0.000000, 1.97299, 1.00236, 0.994689
0.000000, 0.987896, 0.000000, 0.98897
2.00119, 0.000000, 0.000000, 0.000000
0.000000, 0.000000, 0.990244, 0.000000
0.000000, 1.01709, 0.000000, 0.987746
0.999809, 0.000000, 2.00326, 0.993866
0.000000, 1.01387, 0.000000, 0.000000
0.000000, 1.00007, 0.000000, 0.000000
0.000000, 0.000000, 0.000000, 0.000000
0.987345, 0.990416, 0.000000, 0.000000
0.000000, 0.000000, 0.000000, 0.000000
0.000000, 0.995434, 0.000000, 0.000000
0.982681, 0.000000, 0.000000, 0.000000
0.000000, 0.000000, 0.000000, 0.000000
0.000000, 0.000000, 0.996061, 1.01013
0.000000, 0.000000, 0.000000, 0.000000
1.98154, 0.000000, 0.000000, 0.983989
0.000000, 0.000000, 0.999444, 0.000000
0.000000, 0.000000, 1.0284, 0.000000
0.000000, 0.000000, 0.986063, 0.967456
0.000000, 0.000000, 0.000000, 0.000000
0.000000, 1.00127, 0.978339, 0.000000
0.982887, 0.000000, 0.000000, 0.000000
0.000000, 0.000000, 0.000000, 0.000000
0.995985, 0.000000, 0.000000, 0.973593
0.000000, 0.000000, 0.995341, 0.000000
0.994484, 0.000000, 0.996694, 0.992248
1.01364, 0.000000, 0.000000, 0.000000
0.000000, 0.000000, 0.975459, 0.000000
0.000000, 0.000000, 0.000000, 0.000000
0.000000, 0.000000, 0.996545, 1.00074
2.01119, 1.02859, 2.98482, 0.989273
0.000000, 0.000000, 0.000000, 1.00837
0.000000, 1.01777, 0.000000, 0.000000
0.000000, 0.000000, 0.000000, 0.000000
0.000000, 0.000000, 0.000000, 0.000000
0.000000, 0.000000, 0.000000, 0.000000
2.00123, 0.000000, 0.000000, 0.983989
1.00701, 0.000000, 0.000000, 1.98924
0.000000, 0.000000, 0.996403, 0.000000
0.000000, 0.000000, 0.000000, 1.00488
0.000000, 0.000000, 0.982097, 0.982377
0.977429, 0.000000, 0.989318, 0.000000
0.000000, 0.000000, 0.000000, 0.000000
1.98746, 0.982552, 0.000000, 0.000000
0.000000, 0.994484, 0.968574, 0.000000
0.000000, 0.000000, 0.000000, 0.000000
0.000000, 0.000000, 0.000000, 1.95151
0.000000, 0.000000, 0.000000, 0.979151
0.000000, 0.000000, 0.000000, 0.000000
0.977629, 0.984412, 0.000000, 0.000000
0.000000, 0.000000, 0.000000, 0.000000
0.000000, 0.000000, 1.00776, 0.000000
0.000000, 0.000000, 0.993812, 0.000000
0.999407, 0.000000, 0.991859, 0.973593
0.973593, 1.00538, 0.000000, 1.02559
0.000000, 0.000000, 0.000000, 0.000000
0.000000, 0.982225, 1.01557, 0.967456
0.000000, 0.000000, 0.000000, 0.000000
0.000000, 0.000000, 0.000000, 0.000000
1.01541, 1.00786, 3.04386, 0.000000
0.000000, 0.000000, 0.000000, 0.990386
1.00146, 0.000000, 0.000000, 0.000000
0.978951, 0.000000, 0.000000, 1.00358
0.000000, 0.998468, 0.000000, 0.000000
0.000000, 0.000000, 0.000000, 0.990386
0.000000, 0.000000, 0.995216, 0.987012
0.992417, 0.000000, 0.000000, 0.000000
0.000000, 2.95923, 0.98341, 0.000000
0.000000, 0.000000, 0.000000, 0.000000
0.000000, 0.000000, 0.000000, 0.000000
0.000000
*END

*EOF
