*TYPE		=  Raw
*CLASS		=  ASCII CLASS
*SAMPLE		=  A59
*COMMENT	=   
*FNAME		=  A59_2thetaomega_2θ_ω.asc
*DATE		=  11-Jun-19 11:40

*GROUP_COUNT	=  1
*GONIO		=  SmartLab(In-plane), 0.000000
*ATTACHMENT	=  χφZクレードル
*ASC		=  0, 0, 0.000000, 0.000000
*I_MONOCHRO	=  Ge(220)x2, 0.000000
*FILTER		=  None
*C_MONOCHRO	=  No_unit, 0.000000
*SLIT_NAME	=  0, 入射スリット
*SLIT_NAME	=  1, 受光スリット1
*SLIT_NAME	=  2, 受光スリット2
*COUNTER	=  HyPix 3000(H), 0
*POS_FORMAT	=  0
*SCAN_AXIS	=  2Theta/Omega
*MEAS_MODE	=  Continuous Scanning
*TARGET		=  29
*XRAY_CHAR	=  K-ALPHA1
*WAVE_LENGTH1	=  1.54059
*WAVE_LENGTH2	=  1.54441
*THICKNESS	=  0, 0.000000
*MU		=  0, 0.000000
*SCAN_MODE	=  2Theta/Omega
*SPEED_DIM	=  sec./step
*XUNIT		=  deg.
*YUNIT		=  counts
*SCALE_MODE	=  1
*REP_COUNT	=  0
*SE_COUNT	=  0
*STD_MATERIAL	=  Unknown, Unknown, 0.000000, 0.000000, 0.000000, 0.000000, 0.000000, 0.000000
*LATT_CONS	=  0, Unknown, Unknown, 0.000000, 0.000000, 0.000000, 0.000000, 0.000000, 0.000000
*SEC_COUNT	=  1
*TSPEC_SIZE	=  0
*EXTRA_SIZE	=  0
*MEMO		=   

*BEGIN
*GROUP		=  0
*START		=  20
*STOP		=  90
*STEP		=  0.01
*OFFSET		=  0.000000
*SPEED		=  0.116312
*SLIT_SPEC	=  0, 0.500mm, 0.5, 0.000000
*SLIT_SPEC	=  1, 0.500mm, 0.5, 0.000000
*SLIT_SPEC	=  2, 0.500mm, 0.5, 0.000000
*KV		=  45
*MA		=  200
*LOW		=  0.000000
*HIGH		=  0.000000
*CTEMPER	=  0, 0.000000
*CTEMPER	=  1, 0.000000
*CTEMPER	=  2, 0.000000
*PAREX		=  0, 0.000000
*PAREX		=  1, 0.000000
*PAREX		=  2, 0.000000
*PAREX		=  3, 0.000000
*PAREX		=  4, 0.000000
*PAREX		=  5, 0.000000
*PAREX		=  6, 0.000000
*PAREX		=  7, 0.000000
*PAREX		=  8, 0.000000
*PAREX		=  9, 0.000000
*PAREX		=  10, 0.000000
*PAREX		=  11, 0.000000
*PAREX		=  12, 0.000000
*PAREX		=  13, 0.000000
*PAREX		=  14, 0.000000
*PAREX		=  15, 0.000000
*FULL_SCALE	=  779764
*INDEX		=  0, 0, 0
*COUNT		=  7001
0.984948, 2.9704, 2.00004, 2.97201
2.01636, 1.0085, 0.000000, 0.000000
0.992863, 0.000000, 0.000000, 4.95029
1.99392, 1.98714, 0.000000, 0.000000
1.96944, 2.00334, 3.01168, 1.98336
1.98522, 0.000000, 1.99535, 1.98219
1.99921, 0.000000, 0.991445, 0.000000
1.00109, 1.97976, 0.000000, 1.0166
3.01563, 1.00583, 0.998526, 0.988275
0.000000, 1.98377, 0.000000, 3.00215
0.000000, 1.01091, 1.98093, 0.997815
3.00336, 0.000000, 0.000000, 4.01265
1.99063, 2.00463, 3.97039, 1.96419
0.983989, 1.01098, 0.975575, 0.98897
0.999482, 2.01099, 1.00502, 2.01148
1.99856, 2.01421, 2.01243, 0.000000
2.99502, 0.000000, 1.02824, 1.00436
0.978243, 3.00339, 1.98278, 0.991943
1.01777, 1.97993, 1.00776, 1.99672
2.984, 2.00559, 0.000000, 0.993866
2.97848, 0.000000, 0.000000, 1.99063
0.988969, 1.95803, 1.99056, 0.975575
2.97509, 1.98866, 1.97967, 1.98168
2.95877, 0.990416, 0.997709, 0.000000
2.98707, 1.99877, 0.98995, 0.000000
1.01209, 0.000000, 0.974622, 0.972822
1.98583, 2.99425, 1.99447, 1.00099
0.965791, 1.00033, 1.00015, 1.99764
1.97754, 0.96292, 0.96292, 3.97924
0.000000, 0.992769, 1.97655, 0.993375
0.988009, 0.000000, 0.000000, 2.01528
0.995223, 3.9915, 1.00186, 0.998546
0.96292, 3.96156, 0.000000, 3.99572
3.95906, 0.996177, 0.989225, 0.991969
1.00076, 0.960941, 0.986063, 0.999809
3.01349, 0.000000, 0.000000, 2.00476
1.99388, 0.98995, 0.000000, 1.00005
2.97739, 0.000000, 0.000000, 0.988009
0.000000, 1.97171, 0.978662, 0.992571
2.00997, 4.00641, 0.981942, 2.97439
1.98951, 0.000000, 0.000000, 1.00476
3.00679, 0.000000, 0.000000, 0.998965
2.9685, 0.000000, 0.000000, 1.99737
1.99023, 1.95855, 0.000000, 0.983989
0.990596, 2.98337, 5.96875, 0.000000
0.000000, 0.973593, 2.00979, 1.01224
0.000000, 1.00186, 1.99338, 0.991785
0.000000, 1.0054, 1.99396, 3.03724
1.00438, 0.982681, 1.01273, 0.000000
1.98572, 2.00115, 0.993219, 0.983989
1.97721, 1.02883, 1.98325, 1.00258
0.000000, 0.994792, 1.0018, 0.983593
2.96605, 1.97961, 1.97263, 2.98176
0.000000, 2.98781, 2.89938, 3.01147
0.973702, 0.000000, 0.983874, 0.000000
3.01136, 5.00105, 0.000000, 0.000000
0.000000, 2.01969, 0.000000, 0.970123
2.96959, 0.000000, 0.970123, 0.000000
0.996948, 1.96414, 1.97908, 1.98119
0.000000, 0.999407, 2.9901, 2.00562
1.96425, 4.01601, 0.992222, 2.99991
2.93902, 1.97305, 2.97208, 0.000000
1.97929, 0.971962, 0.000000, 2.01977
0.979151, 2.9312, 1.98827, 0.988275
0.000000, 0.970123, 1.01164, 1.96991
1.98707, 1.98116, 1.02767, 2.98958
0.000000, 0.998924, 0.98752, 0.000000
1.9994, 2.02532, 1.00377, 0.971059
0.998297, 0.000000, 2.9603, 2.01642
0.986465, 0.999482, 1.96709, 0.988009
2.98666, 2.01316, 1.00658, 2.9714
2.98338, 1.00614, 1.01009, 1.98048
0.000000, 2.00521, 3.02146, 3.94535
0.982887, 0.000000, 0.000000, 1.95541
0.000000, 1.01147, 3.92595, 0.988275
1.01224, 1.01495, 4.97296, 1.00505
2.01439, 1.03375, 2.01925, 1.95567
0.000000, 2.98224, 2.00975, 2.03417
0.000000, 1.0032, 1.95143, 2.13672
1.99809, 2.99549, 2.00172, 3.00561
1.00196, 4.9893, 0.000000, 1.00187
1.94688, 0.982552, 0.986822, 0.952999
2.96865, 2.95791, 6.98967, 3.97612
1.98735, 0.000000, 0.000000, 0.000000
0.990516, 2.00023, 2.97831, 0.000000
0.000000, 1.00438, 0.982377, 1.01009
0.000000, 0.9942, 2.97451, 1.02824
2.02798, 1.98307, 6.04696, 1.01487
0.988463, 5.00429, 0.000000, 0.991943
0.000000, 3.04736, 1.98375, 1.98236
0.000000, 2.97366, 0.000000, 2.9427
1.99745, 3.00357, 0.988733, 0.000000
1.94995, 3.98284, 1.98651, 0.995843
0.991221, 0.987035, 2.98336, 3.98889
0.000000, 1.00139, 0.985957, 0.997665
2.97881, 3.02963, 0.982888, 3.96894
1.00015, 0.000000, 2.03376, 1.98747
0.000000, 1.00196, 0.000000, 0.000000
1.00531, 0.000000, 2.96153, 1.98264
1.00712, 0.000000, 2.94742, 1.98158
0.000000, 0.998526, 0.995341, 0.000000
2.98906, 1.98456, 0.982887, 1.98589
0.998924, 0.000000, 1.01936, 1.00099
1.01091, 0.000000, 0.988589, 2.96666
4.00132, 2.96082, 1.97773, 3.99513
0.000000, 0.994152, 1.99576, 0.995434
0.000000, 0.999002, 3.98509, 2.02446
1.97081, 0.000000, 1.96933, 1.99102
4.00174, 0.000000, 0.000000, 2.9841
1.0027, 0.000000, 4.02058, 1.98053
1.98596, 0.000000, 0.993219, 1.97722
1.0018, 1.98421, 0.952999, 4.00128
3.94269, 1.99462, 1.99065, 0.982542
2.97011, 0.000000, 4.01784, 0.9942
2.97785, 0.000000, 2.92768, 0.975459
0.000000, 2.01848, 1.97781, 1.01364
0.978306, 1.98271, 3.00903, 2.95722
0.975459, 1.01495, 1.98443, 1.99257
1.96254, 0.994792, 0.000000, 0.000000
1.99175, 0.000000, 3.02411, 0.960941
0.960941, 0.971962, 2.99738, 1.97126
0.000000, 0.000000, 0.000000, 0.000000
0.994707, 1.02963, 3.02283, 0.000000
1.98334, 0.000000, 0.000000, 4.00311
1.98091, 1.98785, 1.96594, 0.989299
1.94003, 1.98221, 0.989225, 1.00278
0.967456, 0.993219, 1.99509, 4.01647
1.00109, 1.98466, 0.994135, 2.98359
2.96762, 0.000000, 0.000000, 0.997875
1.00488, 2.99834, 0.000000, 0.000000
0.000000, 3.9794, 1.99873, 2.00936
2.98983, 1.00085, 0.996913, 1.99824
0.984319, 2.95871, 0.983123, 1.00377
0.998446, 2.0114, 0.000000, 0.000000
0.000000, 1.99665, 0.996604, 1.98087
2.00292, 2.98748, 2.97442, 3.93302
0.99786, 2.96946, 4.97654, 0.978134
2.97646, 0.000000, 1.96866, 1.01495
0.000000, 1.01209, 6.92117, 3.9717
1.02218, 3.99141, 0.000000, 0.980244
0.000000, 2.99793, 1.00199, 0.000000
0.996403, 3.99511, 1.97002, 0.994035
0.984412, 0.000000, 0.000000, 0.000000
0.000000, 1.9797, 0.000000, 0.997709
2.01898, 2.00742, 3.06605, 1.95831
2.00188, 0.000000, 1.99031, 2.00089
1.98056, 2.97484, 1.99483, 0.989318
0.000000, 1.01495, 0.952999, 1.9939
0.000000, 0.000000, 1.01753, 1.98372
1.00438, 2.98998, 0.995529, 1.03032
0.000000, 1.9952, 0.999482, 0.000000
2.00629, 1.99857, 0.000000, 1.95486
0.996774, 1.97869, 0.000000, 0.000000
1.9987, 4.93321, 1.01495, 3.9364
0.000000, 1.00998, 0.982377, 2.12894
1.98865, 0.000000, 1.9586, 0.000000
1.97555, 0.000000, 1.97407, 0.000000
0.988275, 0.989402, 0.000000, 3.96504
1.00539, 0.997966, 1.98989, 0.993866
1.96117, 1.95603, 0.000000, 0.98867
0.998266, 1.97543, 1.98924, 0.000000
0.000000, 2.01198, 1.98523, 1.96527
1.01228, 0.000000, 2.96122, 0.000000
2.03347, 1.00982, 2.13657, 0.991218
0.000000, 1.98268, 2.00426, 0.994105
0.998874, 2.03031, 1.0085, 0.000000
0.988463, 2.08217, 0.9942, 0.000000
0.997172, 1.98429, 1.99149, 0.999737
1.02218, 0.000000, 1.98863, 2.95943
2.03118, 1.99738, 0.000000, 1.02077
1.00532, 0.971059, 0.000000, 3.95049
0.976708, 1.99613, 2.00748, 3.01488
0.991785, 1.02498, 0.997464, 1.96291
1.96454, 1.98883, 0.000000, 1.95858
2.00215, 1.99912, 1.99528, 1.99488
3.03102, 1.01557, 2.00458, 0.98897
1.97231, 1.98617, 0.999618, 0.997875
1.96885, 0.985255, 1.97461, 1.00099
2.00778, 0.000000, 1.00323, 0.000000
0.983713, 0.000000, 0.991793, 1.98173
1.98769, 2.00475, 0.000000, 3.9391
1.01228, 0.000000, 4.98168, 1.98698
2.98232, 0.000000, 4.969, 1.00486
1.97566, 0.992146, 2.97387, 0.000000
0.997815, 2.00289, 1.97446, 1.963
2.96968, 2.964, 1.99786, 2.99624
1.00387, 0.000000, 0.998924, 0.994782
0.000000, 2.03274, 0.997094, 0.983919
2.95548, 2.01457, 0.976708, 0.000000
0.989854, 3.00171, 1.99858, 0.996774
1.99225, 0.000000, 4.99183, 1.01936
0.000000, 2.96927, 1.00917, 0.971962
0.000000, 2.99398, 5.96481, 0.989869
0.000000, 0.995682, 0.99581, 1.98772
2.99839, 0.994333, 0.000000, 1.96438
0.999132, 2.00992, 3.00147, 1.99842
1.99574, 2.02375, 1.00476, 2.97865
2.97471, 0.000000, 1.96845, 3.97786
0.000000, 2.03684, 3.99983, 0.989318
1.96555, 5.98409, 2.01626, 2.98729
1.98756, 1.00099, 2.99186, 2.00039
1.00217, 2.96809, 1.9962, 1.97486
1.99955, 0.000000, 3.02799, 0.982243
2.99623, 0.977629, 3.9361, 2.00202
1.99394, 3.98721, 2.97454, 1.96984
1.952, 2.9921, 4.02682, 1.14147
2.97048, 5.96295, 4.90171, 1.01753
0.994689, 1.00085, 1.00139, 0.973593
0.000000, 0.980693, 0.980313, 2.00285
0.000000, 0.000000, 0.000000, 0.000000
4.01893, 0.987896, 2.93612, 0.000000
1.97004, 1.98947, 1.00532, 1.0005
0.000000, 0.995843, 1.0199, 1.98304
1.01224, 1.97267, 3.98114, 3.98934
1.03082, 1.99177, 0.991218, 1.99337
1.02498, 1.98299, 0.993303, 1.0019
1.00146, 0.993219, 1.97189, 0.000000
4.98059, 2.01229, 1.01098, 1.99421
1.97996, 3.97616, 0.988969, 0.998328
0.98897, 2.00842, 3.97629, 3.00889
0.000000, 2.95654, 0.000000, 0.985519
1.98111, 0.994792, 2.99445, 0.988275
1.94481, 3.00871, 0.000000, 1.968
1.00358, 0.000000, 0.000000, 2.03998
2.96749, 0.988022, 0.000000, 3.00865
1.00594, 2.99926, 0.981625, 0.000000
1.96641, 3.00836, 3.95368, 1.97945
3.97669, 2.99851, 1.96751, 0.000000
0.000000, 1.96865, 2.17021, 3.02617
4.02991, 3.01605, 2.0158, 1.99522
0.000000, 1.01016, 0.000000, 0.977426
3.9517, 0.000000, 1.97053, 2.97393
1.00917, 0.000000, 0.970123, 1.97045
1.96844, 0.99354, 1.00917, 2.01321
0.000000, 5.98641, 1.02532, 1.00368
3.99936, 1.96666, 0.976949, 4.01833
2.95109, 0.998276, 0.000000, 0.952999
3.99773, 3.01139, 4.00881, 1.97946
3.92908, 1.003, 1.99214, 0.991793
3.00405, 1.01056, 2.01827, 0.980693
2.02939, 4.95518, 2.95674, 4.96012
1.98345, 3.97489, 1.9525, 0.990986
4.00809, 3.00658, 3.02037, 1.00186
1.95087, 1.9844, 3.01993, 1.99289
2.0496, 1.97893, 0.993219, 6.96053
2.97589, 1.99991, 2.96627, 2.99468
2.97304, 3.99666, 5.96413, 2.98871
1.9818, 0.000000, 5.94106, 0.992863
2.99224, 1.96087, 0.982551, 3.94579
0.989461, 2.00672, 2.9741, 0.000000
3.95904, 3.98192, 2.9858, 0.000000
0.000000, 1.99552, 3.97157, 1.97335
1.97752, 1.95223, 3.95711, 0.000000
6.99762, 5.01083, 3.99313, 5.98359
2.97991, 1.9972, 4.02375, 3.98366
2.00011, 3.00356, 7.93159, 1.99017
1.95105, 1.99073, 4.94433, 3.04316
1.98953, 0.000000, 2.02851, 4.01175
3.01861, 4.95743, 3.02075, 0.982887
1.00602, 7.9513, 4.02126, 5.0026
1.98748, 5.94173, 2.96401, 4.92088
8.96218, 4.99599, 2.95334, 3.9784
1.00146, 1.99202, 8.00299, 1.98186
6.01307, 2.97994, 7.99667, 7.04372
3.97487, 2.97816, 8.97198, 2.01282
6.96125, 3.00554, 6.91674, 7.94659
4.8986, 7.24175, 9.0269, 3.97328
3.95983, 9.9347, 10.9557, 8.9831
3.00609, 7.98423, 8.98339, 6.96737
5.98062, 9.0042, 9.02703, 6.96952
11.2872, 10.0056, 12.9961, 9.97387
11.0042, 20.1351, 9.95782, 9.93859
10.1055, 16.9141, 8.96904, 10.9169
16.0165, 12.8619, 14.0679, 20.2729
13.8787, 6.95056, 18.0043, 12.0165
18.9709, 13.0656, 15.9444, 24.1252
16.9388, 18.8966, 23.8594, 14.9495
7.05792, 13.9515, 16.1685, 22.2531
19.9419, 25.7426, 20.9119, 24.0197
20.3407, 23.977, 27.9222, 20.9473
27.7579, 33.7876, 34.0563, 28.1384
29.9199, 45.0474, 25.8568, 42.0841
30.9977, 33.9256, 34.9033, 31.805
47.28, 40.2004, 39.9742, 42.0549
52.7188, 42.778, 44.9016, 52.1492
54.2075, 67.7889, 50.7609, 70.8125
53.261, 72.1651, 80.7944, 87.8428
73.6901, 87.664, 103.62, 113.841
123.201, 164.378, 152.567, 191.755
205.343, 214.178, 309.38, 420.3
533.208, 751.02, 1102.76, 1680.93
2591.12, 4068.08, 6276.92, 11061.3
18664.5, 46306.3, 71919.4, 75579.7
73557.8, 67969.6, 60228.4, 49898.5
41842.2, 31899, 22476.2, 15739.2
6904.64, 2593.05, 907.913, 413.749
308.385, 210.605, 134.901, 143.671
122.158, 97.3564, 78.7648, 68.0931
75.3122, 61.0928, 44.984, 42.1983
58.4244, 50.0257, 36.9661, 42.1196
19.8203, 35.3973, 32.2327, 27.2417
31.0195, 20.1929, 20.8892, 22.1633
17.9645, 25.267, 16.9121, 20.9072
19.0116, 17.2736, 22.8808, 5.97018
17.2741, 10.0702, 13.0263, 10.9926
12.9557, 10.9717, 12.9833, 13.9359
7.06009, 11.1514, 9.93675, 8.96681
10.8867, 12.2999, 11.9321, 13.9715
5.95526, 7.01508, 7.95571, 7.03745
11.8714, 4.11717, 6.01492, 12.0321
10.9669, 6.89881, 3.97118, 13.9171
3.98161, 3.00544, 9.93685, 10.4086
6.98791, 7.92901, 9.07572, 5.02813
7.99128, 5.92748, 2.9839, 3.96818
5.96095, 3.93016, 8.12096, 7.96336
8.94985, 7.99057, 4.96446, 4.99232
5.9721, 4.02783, 5.98214, 2.95187
3.99593, 1.96572, 3.97642, 5.92348
5.00521, 3.01069, 4.97067, 9.95287
2.94967, 4.9566, 6.9427, 9.9558
2.99469, 4.01201, 1.00552, 4.9819
7.01768, 2.9767, 4.99648, 1.98517
4.96548, 1.0085, 3.97227, 1.98533
2.99496, 2.9893, 2.95765, 5.98363
8.03033, 3.9296, 2.0137, 2.98001
4.96828, 3.00251, 0.99686, 4.00911
5.99272, 4.29709, 3.98015, 1.99642
1.96079, 7.91625, 4.92318, 6.95943
3.01177, 7.04884, 4.98523, 2.99605
3.95199, 3.93234, 5.94708, 3.96088
4.95137, 3.01333, 3.99306, 1.98979
1.00436, 0.992964, 6.00774, 1.99535
2.01271, 2.9647, 1.00394, 2.96898
1.98201, 0.991969, 1.0005, 2.95772
3.96288, 3.95817, 5.94722, 2.00639
2.01703, 3.97665, 3.00589, 0.000000
0.000000, 5.99749, 1.96128, 3.98317
3.01254, 5.01385, 2.97749, 4.03454
5.02026, 3.01554, 3.00418, 2.99275
2.00342, 2.0256, 2.99419, 5.03762
5.95507, 3.96319, 0.000000, 1.98838
2.97484, 2.95816, 4.99909, 5.96652
4.93476, 0.982887, 1.96646, 3.96794
2.98143, 0.000000, 2.00899, 6.94892
1.96887, 2.005, 1.98478, 4.03842
0.992964, 4.93634, 2.0228, 0.000000
0.978662, 1.00109, 3.99711, 3.00183
0.987035, 8.93717, 0.000000, 0.990225
2.99118, 3.95075, 3.95634, 1.95392
0.989308, 3.98425, 3.0063, 2.00587
4.03496, 0.993326, 0.986473, 1.03092
2.99788, 3.00789, 3.00015, 2.04494
2.03125, 0.989807, 2.97361, 2.96059
2.00288, 1.99291, 4.01621, 3.93694
4.98995, 1.99843, 2.98977, 1.02638
1.00287, 2.97034, 3.97242, 2.0008
4.28592, 5.94013, 2.04194, 1.02532
2.02154, 3.0066, 0.998874, 0.967456
1.97822, 1.0018, 1.9817, 2.97547
4.02296, 1.96167, 1.99723, 1.99236
2.99827, 2.00561, 2.98663, 3.01907
1.97335, 0.993219, 2.9938, 1.96469
2.98081, 0.000000, 3.95082, 2.00546
2.98563, 1.9938, 1.00886, 1.96213
0.000000, 3.01922, 1.95859, 2.00706
2.9733, 1.96671, 1.97995, 2.95221
0.995891, 1.97966, 3.93278, 2.00001
0.976708, 3.95132, 1.97817, 0.000000
0.989297, 2.00355, 2.96358, 3.05736
0.000000, 5.98599, 0.000000, 0.999559
3.9898, 1.95001, 2.97135, 2.99992
1.98825, 0.000000, 5.01211, 1.01277
2.02189, 0.984319, 0.996403, 3.95795
3.99173, 2.04483, 3.00209, 3.01694
2.99736, 1.96525, 1.00253, 0.978134
0.952999, 1.98375, 0.000000, 2.98513
0.98341, 2.98352, 0.973593, 1.98577
1.9588, 2.02003, 2.01667, 0.000000
0.000000, 4.03729, 1.99284, 1.95106
3.94413, 0.984057, 0.000000, 4.96147
0.971, 1.00377, 2.99694, 0.989318
4.98967, 3.01576, 0.975459, 0.000000
2.00835, 0.000000, 1.983, 4.96719
2.99173, 1.98665, 0.000000, 0.996544
2.02124, 3.00639, 0.000000, 2.97133
0.000000, 2.98456, 1.00538, 0.983691
1.99657, 1.96126, 0.993375, 0.967456
1.00753, 1.99874, 0.000000, 0.979151
0.000000, 2.97211, 1.9857, 1.02963
0.000000, 2.00444, 1.99437, 2.97768
2.0153, 2.00978, 0.982542, 3.03589
2.95052, 2.0254, 4.88594, 1.01989
1.99676, 1.99765, 3.97612, 1.99386
1.9713, 1.96897, 2.02339, 2.9614
2.95996, 2.00439, 1.99941, 2.00674
2.99864, 1.99661, 1.97774, 0.996004
0.000000, 2.97961, 1.01996, 1.0018
4.93762, 1.98601, 2.94958, 5.98461
0.000000, 2.97181, 1.99565, 0.998446
2.00555, 3.9474, 1.00139, 0.000000
1.0092, 0.000000, 0.000000, 1.99411
0.000000, 0.988589, 0.000000, 4.88024
1.00278, 2.98361, 0.000000, 0.000000
1.01996, 2.98604, 3.02035, 1.00658
1.00217, 1.98685, 1.98755, 2.98134
2.00062, 0.984948, 8.97198, 3.93026
0.000000, 0.000000, 1.00139, 0.000000
2.002, 0.992769, 1.95909, 1.97263
2.00074, 1.9842, 1.01147, 2.94849
1.99523, 1.00811, 0.000000, 0.993959
0.974622, 2.99854, 0.000000, 1.96191
3.94095, 0.995525, 0.000000, 0.000000
3.97476, 2.00785, 1.992, 0.985436
3.01075, 3.01926, 1.98712, 2.97867
0.999482, 0.985137, 1.98822, 1.00377
1.01209, 0.968574, 2.95799, 1.9571
2.97919, 0.000000, 1.01164, 2.00906
1.99417, 1.99256, 0.995525, 0.000000
1.99026, 0.000000, 0.000000, 1.00455
0.000000, 2.00679, 0.96292, 1.01056
1.97687, 1.00486, 1.96309, 4.00505
2.14599, 0.000000, 3.90503, 1.00015
2.98315, 0.000000, 0.993375, 0.978134
0.988942, 4.96146, 1.98768, 2.97203
1.00488, 1.9838, 3.00586, 3.0133
1.98539, 0.984348, 0.000000, 1.98993
0.000000, 0.997464, 1.00259, 2.03126
1.00811, 3.02118, 2.97664, 3.0014
0.990254, 0.000000, 2.01891, 0.000000
0.000000, 0.980385, 1.98459, 2.97603
0.975459, 1.00451, 0.992146, 2.00476
1.99787, 0.975459, 4.94047, 3.97763
0.996545, 1.00073, 0.97156, 2.959
1.97065, 3.98958, 1.99379, 4.95021
2.95825, 0.000000, 0.000000, 1.0284
0.991819, 0.983508, 0.997652, 2.97506
1.94852, 0.999618, 0.992571, 1.97767
0.996789, 0.97156, 3.04853, 2.0202
2.00047, 0.000000, 0.000000, 1.9934
1.01495, 2.98151, 1.94694, 4.96289
3.0058, 1.97217, 0.952999, 0.985206
5.98324, 2.98661, 3.94133, 0.977624
0.997827, 1.98628, 0.000000, 0.997665
3.98973, 0.952999, 0.000000, 2.96615
1.99974, 4.02885, 1.99042, 0.000000
3.95372, 2.00855, 3.98318, 1.99453
2.01683, 3.99634, 0.982377, 4.02035
3.95339, 1.00236, 2.00598, 0.000000
1.99094, 1.01901, 1.9882, 2.95859
2.96607, 4.00582, 4.94232, 5.96771
3.01208, 3.04794, 7.89047, 0.982681
2.95333, 2.97346, 5.95397, 3.96698
0.979151, 1.95424, 2.98774, 1.00137
1.99562, 3.97341, 7.25312, 0.000000
4.0344, 4.00094, 1.97542, 3.00254
1.99581, 2.96724, 1.98145, 1.98457
1.02077, 2.00254, 1.95997, 0.988022
0.000000, 2.97232, 0.991993, 2.99792
1.98652, 1.9682, 0.000000, 4.99526
2.98599, 1.99416, 1.97026, 1.00329
1.97707, 1.99788, 1.0054, 3.04353
0.000000, 1.9681, 0.000000, 1.9855
3.00587, 1.98993, 2.02104, 1.03082
0.990244, 2.9918, 5.88809, 1.01901
2.00619, 0.968574, 1.00517, 2.00526
1.01164, 3.98574, 0.996544, 0.994105
0.990903, 4.00227, 5.01009, 0.987012
1.9827, 0.988589, 1.97761, 1.98207
0.000000, 0.982243, 0.985519, 1.98762
0.992964, 2.00679, 0.996604, 0.985519
0.982887, 1.03007, 0.000000, 0.000000
3.0108, 0.999444, 0.986703, 1.97538
2.986, 0.000000, 1.98652, 1.00186
1.00358, 0.992996, 0.978235, 1.96972
3.00135, 1.01495, 2.00521, 2.9743
0.000000, 1.96047, 3.98916, 0.000000
2.99999, 0.000000, 0.000000, 1.95939
1.00329, 1.99402, 0.000000, 1.00712
2.97413, 0.996403, 3.01606, 0.000000
1.02008, 3.98223, 0.000000, 2.00038
1.96661, 0.995223, 0.95315, 0.000000
4.96849, 1.99998, 0.973593, 2.96626
0.000000, 1.99651, 0.000000, 3.01136
0.000000, 1.99275, 0.985111, 0.952999
2.02349, 0.000000, 1.9695, 2.00186
1.99141, 0.997094, 3.0018, 1.00394
1.95739, 2.02959, 1.00896, 0.999002
3.0083, 1.99991, 1.95702, 1.01164
1.00162, 3.93294, 4.90869, 3.04025
0.994333, 2.95951, 0.000000, 0.000000
1.99664, 0.978951, 1.96937, 1.98781
0.985436, 2.99932, 0.000000, 4.91993
3.02787, 3.98981, 0.989299, 0.000000
1.00024, 2.9714, 5.01974, 1.98566
0.000000, 1.9708, 1.97566, 1.0054
0.996948, 0.000000, 3.00208, 0.999444
3.00074, 1.02855, 2.97676, 0.994782
1.96514, 0.000000, 0.000000, 0.000000
0.995529, 1.00387, 1.98348, 1.00168
5.98882, 3.01258, 1.95953, 1.02077
3.99056, 1.99149, 3.95074, 2.96835
0.989273, 0.000000, 0.994689, 1.02077
2.9708, 0.000000, 0.987012, 0.000000
0.997875, 0.998546, 0.000000, 2.00452
0.000000, 2.98952, 1.98153, 4.91642
2.96469, 2.02265, 1.01996, 3.95239
0.987896, 1.98467, 1.98025, 0.000000
0.000000, 1.97641, 0.000000, 1.97281
1.97879, 0.994333, 1.96773, 0.967456
1.00455, 0.990026, 0.000000, 1.97795
2.00705, 3.03227, 1.99379, 2.00534
2.96536, 0.000000, 1.00146, 1.98002
1.9742, 2.97821, 2.96234, 0.000000
2.95635, 2.96479, 0.000000, 1.96786
1.95918, 3.98282, 0.983713, 1.03117
2.97619, 3.02542, 0.000000, 1.99242
0.000000, 0.994333, 1.99878, 1.96723
0.974622, 0.98752, 2.96805, 2.98254
0.986584, 2.96895, 3.94438, 1.97384
1.98293, 1.99818, 2.00466, 0.000000
1.00394, 1.98551, 3.03004, 0.968993
2.95516, 0.000000, 0.994135, 1.01936
1.96178, 3.98239, 0.000000, 4.0393
0.989318, 0.000000, 0.994689, 5.00214
0.000000, 2.00991, 1.00007, 0.000000
0.000000, 0.000000, 1.9919, 5.96733
1.97123, 0.995985, 2.01252, 1.98112
2.96852, 1.00259, 2.12436, 2.01091
0.984784, 3.968, 4.96154, 0.000000
0.000000, 4.05223, 1.98841, 1.01164
3.01178, 2.00996, 4.92084, 0.996136
1.00138, 1.97521, 0.000000, 0.960941
0.981196, 0.999002, 0.000000, 1.97653
2.0092, 2.95285, 0.996403, 1.98213
1.98503, 0.994484, 0.000000, 0.998124
2.00653, 2.01132, 2.00731, 2.00936
0.999737, 2.0073, 2.01474, 4.03629
2.98217, 1.99846, 1.97121, 1.00776
0.000000, 1.98614, 0.991414, 2.97196
0.989299, 1.97387, 3.01917, 1.02559
1.97196, 0.000000, 3.95715, 0.000000
2.98115, 1.01901, 0.000000, 2.96237
1.99496, 1.01164, 0.000000, 3.95971
1.01009, 2.01051, 1.99604, 0.000000
1.02261, 0.992146, 1.97873, 0.982377
4.95511, 1.98018, 0.000000, 0.994889
1.00024, 0.000000, 0.977426, 0.000000
1.98704, 0.975459, 3.00239, 2.97086
2.97638, 1.98998, 0.980313, 5.05145
0.000000, 0.991969, 2.97843, 0.991785
0.000000, 1.95951, 1.99319, 1.98242
0.985519, 0.994333, 1.0092, 4.99182
3.01202, 1.97266, 0.989522, 4.13584
0.000000, 0.000000, 3.02487, 1.97491
3.98105, 1.00377, 4.96561, 1.00189
2.00662, 3.95524, 3.00976, 3.97718
0.000000, 2.9922, 0.000000, 2.95247
0.000000, 0.000000, 2.96311, 1.01936
3.95879, 1.97564, 0.965791, 0.96292
6.0309, 0.993219, 0.000000, 1.00009
1.95402, 0.000000, 2.89345, 0.991969
3.96708, 0.995341, 1.98397, 1.97457
0.000000, 1.96136, 0.000000, 2.02022
0.000000, 0.000000, 1.98898, 0.996403
0.990026, 0.000000, 0.000000, 4.00542
1.00186, 2.01404, 0.978134, 1.01146
2.96464, 1.98437, 0.99354, 2.00803
0.000000, 0.994152, 0.000000, 5.94722
1.97881, 1.00259, 1.00139, 2.99304
3.96937, 0.998356, 2.01062, 1.99789
2.97937, 1.01098, 1.1415, 3.03094
2.9979, 4.00291, 0.993812, 1.97062
0.993219, 0.982681, 0.98897, 0.976382
1.99025, 1.98322, 0.987012, 0.988589
2.9772, 1.0032, 1.9741, 1.00084
2.94625, 0.994333, 1.00259, 1.99756
0.99925, 0.996545, 0.000000, 2.0007
1.99615, 1.00436, 1.95755, 1.9821
1.98547, 1.96868, 1.00191, 0.000000
5.92198, 0.987896, 2.00805, 0.992366
2.99404, 1.97828, 1.0199, 4.00454
0.000000, 0.993789, 2.00585, 4.98919
2.00884, 0.992417, 2.97785, 0.000000
0.989225, 4.94778, 1.0284, 0.988942
2.00269, 0.990386, 0.983713, 1.00517
0.000000, 1.98072, 1.97341, 1.94719
2.02563, 3.99287, 3.01546, 1.97788
1.00005, 1.99862, 2.97914, 1.00599
0.989021, 1.98309, 0.983593, 0.952999
1.94105, 2.13646, 0.000000, 4.00578
0.977629, 5.95444, 1.9654, 1.00552
0.000000, 0.98897, 3.9589, 0.975459
1.97008, 3.00381, 2.00692, 1.9873
0.991969, 2.94323, 1.99484, 0.000000
1.00168, 1.98293, 3.02144, 1.96658
1.97355, 0.000000, 0.987768, 0.000000
1.00138, 1.01996, 1.96022, 2.9785
3.00788, 0.000000, 2.03993, 3.00313
0.991819, 0.000000, 3.95625, 2.9784
1.9872, 0.996604, 4.98904, 1.99585
2.95879, 3.00801, 0.000000, 0.000000
2.01729, 0.000000, 2.9712, 0.998753
4.02636, 1.99639, 5.00181, 3.02621
3.01894, 3.96834, 2.99316, 2.97038
5.96411, 4.03342, 5.98648, 0.978339
0.994105, 5.98583, 7.94054, 3.98205
11.8704, 6.8691, 10.0152, 6.93113
10.9482, 8.96753, 7.95704, 13.9546
8.99984, 3.98143, 10.9756, 6.01014
10.994, 9.99307, 16.1971, 5.95645
6.01606, 5.97325, 3.0219, 5.95808
6.99178, 3.9966, 6.94433, 3.98194
0.978134, 7.08536, 3.99612, 1.0005
6.99421, 4.98261, 5.01649, 3.99672
5.97291, 4.02518, 0.995516, 0.985519
3.02029, 2.00997, 1.9916, 2.99114
3.9077, 1.99298, 2.96145, 2.99848
5.9452, 0.000000, 0.000000, 0.995634
0.995341, 3.01787, 0.996102, 3.00918
2.01985, 0.981749, 1.98583, 5.9689
2.00615, 2.04833, 1.98982, 1.99212
1.96294, 3.96701, 0.990065, 0.000000
2.97804, 0.98649, 0.000000, 2.98844
1.99126, 1.99906, 6.01163, 2.02724
1.96481, 0.000000, 1.99324, 0.991819
1.97986, 2.00772, 0.995347, 0.000000
0.970327, 4.02298, 3.96732, 1.99368
1.97881, 2.94663, 3.9778, 2.00767
0.000000, 1.00085, 1.97728, 0.000000
1.98339, 3.98449, 1.97147, 0.000000
0.000000, 0.968574, 2.99287, 0.000000
1.99265, 0.996545, 2.00128, 2.02697
3.01379, 0.980385, 2.95425, 1.99249
0.000000, 3.98142, 0.976708, 1.98879
0.987345, 2.96314, 0.997827, 3.94559
3.99731, 0.997966, 0.992964, 0.996102
1.02077, 1.98672, 1.99421, 1.99261
0.992366, 2.99149, 0.000000, 5.03853
2.01272, 1.02997, 1.00712, 1.01777
1.99686, 0.000000, 1.00033, 1.0284
0.000000, 1.00076, 1.02936, 1.00258
1.9816, 2.01386, 2.01248, 1.98103
2.02002, 1.9777, 0.000000, 2.00583
2.96159, 1.14147, 1.99214, 4.98526
1.98552, 4.97487, 3.00185, 2.99772
0.000000, 3.13323, 0.988589, 2.0057
5.98822, 0.990101, 3.98961, 0.000000
1.03092, 0.000000, 2.04265, 4.91992
4.02664, 1.98288, 1.00776, 3.00317
2.96577, 1.98088, 0.000000, 2.00355
3.04031, 1.97656, 1.03032, 1.01996
0.000000, 0.983508, 1.98424, 0.990026
0.977629, 0.995843, 2.02016, 0.994484
0.999444, 5.0394, 0.982377, 1.97396
0.000000, 1.00716, 1.98794, 2.94411
1.99881, 1.97057, 2.9891, 2.96877
2.00042, 1.95952, 0.998276, 2.00313
0.988009, 1.01487, 0.975459, 0.982888
0.000000, 5.96392, 2.00591, 1.9818
3.98895, 2.0202, 0.989021, 1.95801
2.00187, 2.01268, 0.995516, 6.03888
1.00776, 3.99593, 2.98869, 0.977417
2.97815, 0.000000, 2.98499, 2.01812
0.000000, 0.989854, 1.97827, 1.94852
2.00354, 2.979, 3.02236, 4.95489
2.00329, 2.99956, 1.97197, 0.984665
2.97691, 2.94734, 1.99552, 0.000000
2.94847, 5.96923, 0.984412, 1.99955
1.9836, 1.99753, 0.000000, 3.96265
0.000000, 3.95929, 0.996764, 2.98957
0.000000, 0.991993, 0.989461, 0.000000
2.02088, 0.992769, 2.97274, 1.97341
0.990516, 2.00092, 0.000000, 1.94474
2.99422, 2.93186, 2.01927, 5.92005
2.98643, 0.000000, 2.97296, 0.970123
0.000000, 0.000000, 1.00193, 2.99977
1.00085, 0.000000, 0.972011, 1.99201
1.97994, 0.000000, 1.00368, 2.99358
3.97169, 1.97605, 1.0085, 2.99219
1.97758, 2.00664, 0.978951, 3.99804
0.987345, 2.97576, 2.96976, 1.00532
1.9793, 3.94277, 1.97503, 0.983123
1.98486, 0.000000, 1.01996, 0.000000
1.98923, 1.95111, 0.995347, 3.97668
5.00946, 1.97785, 1.98613, 0.000000
1.95309, 3.00825, 4.95857, 2.00286
0.985137, 1.98968, 2.97191, 1.00073
0.000000, 3.98419, 2.0223, 4.96146
1.99882, 1.9617, 2.00621, 2.0266
1.96289, 2.00499, 0.988787, 0.000000
0.997966, 1.95709, 2.97527, 1.98923
1.9892, 2.96974, 1.99327, 1.99661
1.96552, 0.979151, 2.98986, 0.000000
3.98007, 1.03064, 1.97956, 2.99957
1.99973, 0.000000, 1.96679, 2.96546
3.98237, 1.00217, 1.00217, 3.98157
0.997827, 0.982681, 4.01643, 0.000000
4.03638, 0.993219, 0.993866, 1.01901
2.9295, 2.02099, 3.97968, 0.978134
0.985519, 3.99415, 1.00886, 3.95861
2.98811, 1.99593, 0.989522, 2.00728
2.02535, 0.989273, 5.97753, 2.99908
3.92409, 1.98011, 0.994251, 0.991596
3.92602, 0.000000, 0.000000, 3.95405
2.9943, 3.02588, 2.95529, 1.98169
2.93558, 1.97783, 1.98784, 0.000000
0.000000, 3.99646, 2.97523, 1.99942
5.95469, 1.97699, 0.988275, 2.9968
3.01108, 2.01098, 2.98011, 1.99778
1.9829, 3.0054, 0.000000, 0.000000
0.997665, 2.97893, 0.952999, 3.00247
1.9613, 2.01803, 1.99796, 1.0054
0.981625, 1.02997, 2.01019, 0.000000
0.998446, 0.000000, 0.000000, 3.99486
0.999618, 4.00322, 0.975459, 1.01009
1.95355, 1.99199, 3.01134, 4.00953
0.985436, 1.99592, 0.99191, 3.98835
0.000000, 1.97923, 2.96594, 0.98537
0.994792, 3.93487, 5.03318, 0.986875
5.01258, 1.98768, 1.9392, 1.99277
4.01402, 2.99789, 0.991218, 1.01091
0.000000, 1.95382, 2.00222, 0.987035
5.8964, 2.97883, 1.00449, 1.98384
2.97886, 1.9789, 1.9757, 1.98779
1.00024, 4.00539, 3.933, 4.95272
0.998356, 4.00702, 2.98423, 1.98077
3.01995, 3.02499, 3.91412, 2.002
0.000000, 0.000000, 1.95861, 1.95911
2.01198, 0.000000, 0.981773, 1.03093
1.98601, 0.977629, 3.01372, 2.98332
1.98093, 0.985519, 1.97075, 0.975575
0.000000, 4.93894, 1.94647, 5.98747
2.02821, 1.01013, 0.983508, 2.98628
2.9703, 4.00235, 0.000000, 1.01777
0.998874, 0.990026, 2.02241, 1.99375
0.990065, 0.989299, 1.00146, 1.97185
1.98819, 0.000000, 0.986703, 0.000000
0.978767, 1.00476, 0.986584, 1.00377
2.99317, 2.97067, 2.02863, 3.99844
1.98682, 0.99581, 0.997464, 2.98064
3.00572, 0.000000, 1.93781, 4.97881
1.02936, 0.994782, 4.00142, 1.00394
1.01996, 1.97852, 4.96261, 3.94613
2.00841, 0.000000, 1.97332, 2.02837
0.994179, 0.000000, 3.00057, 0.000000
1.97562, 5.01156, 0.967456, 1.01228
0.990698, 0.000000, 0.995864, 2.96471
2.98006, 1.00886, 0.000000, 1.98018
0.000000, 1.9909, 0.000000, 0.977629
3.01477, 0.977629, 1.94612, 3.00803
2.97195, 3.98828, 0.000000, 1.98502
1.99827, 3.00728, 1.97235, 2.98853
0.978235, 1.9819, 4.04277, 0.99925
0.976205, 2.00014, 1.9873, 1.00886
1.99258, 0.000000, 2.01211, 1.99464
1.97741, 0.987035, 0.974622, 0.985111
0.000000, 0.000000, 2.99553, 0.995843
0.000000, 1.03082, 1.99661, 4.04098
4.0233, 1.00658, 0.000000, 1.99754
2.92642, 0.000000, 1.98697, 0.000000
2.9663, 0.989318, 5.00623, 2.01799
0.994179, 2.99519, 1.99042, 0.981435
1.00236, 0.000000, 0.999618, 2.01978
0.988589, 1.98194, 2.94642, 5.00223
0.986875, 0.960941, 2.00769, 3.93499
1.95461, 3.00684, 2.9767, 0.977426
0.980244, 2.90417, 0.000000, 1.9825
0.000000, 0.000000, 2.0084, 0.997233
1.95603, 1.0085, 4.99814, 2.98165
3.00573, 1.00099, 1.00287, 2.96387
0.976638, 2.00536, 3.01358, 3.92022
0.985436, 4.07908, 0.990698, 2.99696
1.01495, 3.99249, 0.989308, 1.97771
1.97766, 0.000000, 2.98755, 2.02028
1.99487, 1.95523, 0.000000, 4.98863
0.000000, 0.995699, 0.000000, 3.035
0.000000, 2.00898, 1.9882, 0.000000
0.972822, 1.94952, 1.9714, 1.99479
0.997827, 0.000000, 3.00174, 0.000000
1.97285, 4.01182, 1.9609, 3.0309
0.000000, 0.000000, 2.97294, 1.9762
0.000000, 2.02496, 1.95418, 1.956
3.97088, 0.982681, 1.98437, 5.002
0.996403, 1.00187, 1.99789, 1.95353
3.95973, 2.00871, 1.99395, 1.05069
0.968993, 2.97976, 2.98645, 2.00961
1.14147, 1.98595, 0.000000, 1.00538
0.971059, 1.96907, 2.9738, 2.02683
4.93148, 1.02358, 0.983888, 1.00024
0.000000, 0.000000, 3.95884, 1.00162
1.97025, 4.01246, 1.00022, 1.00626
1.01147, 0.965385, 1.0005, 6.01124
1.00139, 0.000000, 0.981991, 1.99285
0.993738, 2.99132, 1.97438, 1.96863
1.99209, 2.02936, 0.989273, 0.970123
1.96139, 0.993959, 0.997875, 0.9942
2.00717, 2.97397, 2.97644, 1.97439
0.000000, 3.00935, 1.98974, 2.99089
0.998965, 0.000000, 1.00436, 2.97242
3.03064, 1.96217, 1.00814, 1.98336
0.000000, 0.000000, 1.99199, 2.001
1.98451, 0.996948, 0.000000, 2.99898
0.991785, 0.972822, 0.000000, 1.00394
1.00024, 1.99472, 2.97392, 0.000000
1.00043, 2.97071, 0.994035, 4.01211
1.00246, 1.00217, 0.000000, 0.986473
1.95941, 0.982681, 1.98378, 2.01845
0.975575, 1.97419, 0.000000, 2.97242
5.00391, 1.00259, 1.9502, 0.000000
0.989318, 1.00329, 0.000000, 0.989402
2.02645, 0.000000, 0.993219, 5.09845
1.99368, 1.97226, 2.97273, 4.95912
0.997665, 1.97944, 1.98147, 1.99525
3.00271, 4.03333, 1.01996, 2.99057
0.967456, 0.977426, 1.97615, 0.993764
2.0175, 0.000000, 2.0151, 1.02008
1.9976, 1.97589, 0.978134, 2.03469
0.952999, 0.000000, 5.92479, 0.000000
2.00673, 1.99126, 0.992769, 1.00007
1.02077, 1.98543, 0.000000, 2.02528
0.000000, 4.93572, 0.998468, 2.96106
2.97857, 2.00857, 1.97274, 2.98728
3.03095, 1.00287, 1.00085, 3.92936
0.000000, 0.000000, 3.97829, 0.997875
0.952999, 1.97657, 0.996604, 0.000000
2.9904, 0.991218, 1.99763, 1.98691
0.000000, 0.986465, 4.98706, 0.000000
2.98264, 4.94566, 0.000000, 2.98658
3.97175, 1.99203, 0.996403, 1.98683
3.03003, 0.976949, 2.9952, 2.00362
0.989105, 1.97118, 3.9815, 3.93255
1.98467, 3.02134, 1.96347, 4.01656
2.93739, 1.96566, 2.96816, 0.990361
1.00259, 2.02031, 4.98228, 2.99365
2.99454, 1.01791, 0.995828, 2.98832
2.98848, 5.93528, 3.00095, 1.00532
4.01561, 0.000000, 0.000000, 0.000000
0.988942, 0.992964, 1.03375, 3.99912
0.995347, 0.999482, 2.99257, 0.983874
1.99077, 3.99995, 1.9715, 1.01487
4.99643, 0.000000, 2.97665, 0.997652
0.000000, 0.96292, 1.98358, 0.982887
2.98921, 2.01788, 2.97316, 0.979422
0.000000, 0.989318, 0.978235, 1.97125
1.99276, 1.0018, 2.99228, 0.000000
4.96291, 0.000000, 2.95054, 3.1391
2.95643, 1.9745, 2.93676, 0.991969
1.96299, 3.99045, 3.95397, 1.99933
3.99334, 1.99286, 3.93697, 2.9694
2.97763, 2.97738, 1.95983, 1.98769
2.0004, 0.000000, 1.00451, 1.99106
0.977429, 2.98939, 3.00105, 3.00398
1.00139, 3.02772, 0.000000, 2.00596
0.000000, 1.01091, 5.95087, 1.02077
1.00015, 1.97289, 0.000000, 0.000000
0.996102, 1.98285, 0.000000, 0.000000
1.97433, 4.98381, 1.97341, 1.99806
0.979395, 2.00915, 2.9642, 1.97302
5.03416, 0.985896, 2.99231, 1.0114
2.00934, 0.000000, 2.01485, 2.9563
3.01969, 0.000000, 3.98667, 1.99009
4.0147, 1.98947, 1.97875, 3.99137
0.000000, 0.000000, 1.98563, 1.96068
2.98207, 0.000000, 3.9813, 2.96317
1.9878, 1.98524, 0.99354, 1.00982
0.972822, 4.0127, 2.99124, 0.978134
2.9747, 1.99853, 0.992964, 4.98166
3.96907, 3.93847, 2.93833, 4.98112
2.02151, 0.987035, 0.969094, 1.9907
1.01228, 1.99287, 1.97989, 1.01468
3.9226, 0.000000, 0.988942, 3.9979
1.99498, 0.000000, 0.000000, 3.01535
3.0352, 0.000000, 2.97902, 0.994689
4.98282, 5.95836, 2.93087, 6.89892
0.000000, 3.00173, 0.999002, 0.000000
0.000000, 0.992222, 1.97875, 0.000000
1.0009, 2.96391, 2.0053, 0.998328
0.000000, 1.96798, 0.985111, 3.98361
0.000000, 3.942, 1.98877, 0.998406
2.06125, 0.000000, 2.97391, 0.000000
0.985137, 0.979395, 1.00162, 0.97911
2.99283, 1.99499, 0.000000, 0.993866
3.99009, 5.0154, 1.98891, 0.996403
1.03064, 4.01613, 1.95839, 0.000000
1.99342, 1.96137, 0.992769, 1.0356
1.98557, 0.000000, 3.00098, 3.00124
2.99881, 2.97361, 0.974622, 0.000000
4.95587, 0.983691, 2.98008, 1.96297
0.97911, 1.0018, 5.98112, 2.02123
1.99223, 1.97096, 1.01147, 3.02101
0.000000, 0.000000, 1.95751, 1.98939
2.94363, 4.03387, 2.0218, 0.99925
1.01015, 0.988969, 3.96095, 4.01562
1.9728, 1.99759, 0.99191, 1.99843
1.98068, 0.985255, 0.000000, 5.93089
0.988983, 0.999618, 0.000000, 2.93679
4.00958, 1.98473, 3.02051, 3.01742
1.99091, 0.991218, 0.000000, 0.000000
2.00878, 0.993866, 4.94966, 0.000000
1.94758, 0.984057, 1.98204, 3.9893
0.000000, 0.993959, 1.97936, 2.01221
3.9819, 0.978235, 1.96663, 1.03032
0.000000, 2.96463, 0.999002, 1.97505
0.978243, 0.000000, 1.98147, 1.00505
1.00538, 2.96544, 1.00329, 3.99333
1.96829, 0.95315, 2.98572, 0.000000
0.988942, 0.000000, 0.000000, 2.01126
3.97198, 1.96761, 1.96959, 0.000000
1.97611, 0.000000, 0.991943, 0.999444
0.993219, 0.000000, 0.000000, 0.000000
4.94522, 2.97009, 0.000000, 4.01871
0.979389, 2.99716, 0.993375, 3.01037
0.983989, 1.95057, 1.96398, 3.97244
0.985327, 1.96165, 0.970123, 1.96358
2.99639, 1.99293, 2.99783, 1.9902
3.98874, 3.99542, 3.97267, 1.01557
4.91786, 1.98355, 3.98049, 3.95585
5.1202, 1.98545, 2.03652, 0.993303
2.98203, 3.93918, 2.98486, 4.0025
2.01823, 3.0147, 2.94867, 2.13918
1.98745, 2.96019, 1.98597, 2.98033
1.97471, 0.970123, 2.99621, 2.03124
3.95968, 0.000000, 0.995525, 2.02868
1.00539, 1.00162, 1.04108, 0.999711
1.9759, 2.95762, 0.952999, 1.99103
1.98028, 0.000000, 0.000000, 0.000000
4.01836, 3.99345, 1.96669, 0.998297
1.99647, 0.000000, 1.01689, 1.9801
1.96795, 2.00403, 1.99384, 1.99661
2.00587, 0.000000, 0.000000, 1.98042
3.0514, 2.96279, 1.97839, 1.9891
0.000000, 2.96882, 4.02277, 1.99821
0.965385, 3.95441, 0.000000, 1.99097
0.994105, 6.92398, 2.99984, 0.000000
2.00711, 0.984665, 4.037, 1.9953
2.95766, 1.00539, 2.00056, 0.989273
0.000000, 0.986179, 1.01901, 2.997
5.91949, 2.01413, 2.98095, 1.00532
1.03082, 2.00273, 2.017, 2.966
2.04154, 3.02812, 1.00217, 2.97722
0.995699, 2.01909, 0.000000, 1.98417
1.98077, 2.0117, 4.96595, 0.985957
0.992769, 3.01144, 0.96292, 4.02341
0.000000, 2.97048, 2.98549, 0.991943
1.98834, 0.000000, 6.00559, 1.97769
2.99746, 1.00806, 1.00022, 0.000000
1.02358, 0.994889, 0.99925, 4.01765
4.95426, 3.03177, 0.999618, 4.03432
3.00092, 1.00033, 2.9739, 3.96972
2.02384, 1.94986, 0.000000, 0.000000
3.97049, 2.00584, 1.98714, 2.96025
0.989869, 0.000000, 3.98775, 4.97378
2.04784, 3.03354, 0.000000, 4.99891
2.99592, 0.998753, 2.96006, 1.98613
1.97994, 2.94072, 1.99236, 2.00528
1.99242, 0.000000, 2.00746, 2.97166
2.98433, 0.990254, 0.981658, 1.99324
0.989869, 0.998124, 4.01, 0.000000
2.97898, 0.988009, 0.000000, 1.99688
0.000000, 3.98094, 2.98123, 1.98223
1.97889, 2.9681, 1.99351, 1.99767
1.98548, 0.000000, 2.01115, 0.000000
1.99916, 0.979389, 0.985111, 1.9989
1.00033, 3.96279, 4.92378, 4.96444
0.000000, 2.95863, 3.99977, 1.99066
4.02443, 3.95978, 1.97522, 2.9791
0.984412, 1.00278, 0.000000, 4.97544
2.01597, 3.96626, 0.991809, 0.994333
0.000000, 0.000000, 0.000000, 2.98067
3.0326, 1.96929, 5.94527, 0.997875
1.00007, 2.9852, 2.9933, 3.00776
0.98706, 5.01259, 2.98434, 3.00276
0.993375, 0.000000, 3.96817, 3.96461
4.00652, 1.97963, 2.00212, 2.95567
4.00338, 3.00298, 2.02831, 0.997718
3.01502, 1.97277, 3.93637, 3.01859
0.000000, 0.970327, 3.04372, 2.00412
0.992417, 0.000000, 1.01345, 2.99427
1.00776, 3.94472, 1.98581, 1.97931
0.974124, 1.00186, 0.000000, 0.975459
0.000000, 0.973593, 3.01522, 2.98639
2.97268, 2.99793, 3.00495, 0.988942
2.98783, 1.00479, 2.00397, 0.978134
3.97875, 1.96724, 0.970123, 0.000000
1.98457, 0.970123, 0.000000, 0.000000
0.996463, 0.980527, 2.00745, 5.99753
2.02339, 3.94281, 0.000000, 7.03698
2.00523, 0.997652, 0.992617, 2.96765
2.97276, 0.000000, 2.97041, 3.98698
2.96342, 1.99557, 4.00648, 1.00329
1.97829, 1.0054, 6.96859, 2.00427
2.99002, 1.01056, 1.96805, 0.996913
3.007, 2.01695, 2.02742, 1.00253
1.00394, 1.9292, 0.000000, 1.01091
1.00517, 2.98483, 3.97199, 1.00517
1.00776, 0.99786, 1.99295, 2.00156
2.99402, 2.96301, 3.95067, 0.000000
0.977426, 0.994792, 3.02181, 1.97985
3.99227, 0.000000, 1.99809, 0.000000
2.99422, 1.99856, 2.95031, 2.96896
1.00109, 0.988589, 2.98696, 0.000000
2.98956, 1.95728, 2.0089, 2.02494
3.0186, 1.98182, 2.95828, 2.99758
0.987035, 0.981435, 1.99803, 2.96252
2.02996, 1.01173, 1.0005, 1.01865
1.97135, 0.000000, 1.95761, 1.96957
1.98409, 0.000000, 4.03782, 2.02864
1.00866, 3.04146, 4.99777, 3.97293
1.0166, 0.990386, 3.9615, 2.97279
1.96887, 2.99759, 0.000000, 4.99338
2.98482, 1.96777, 0.000000, 1.0092
4.91973, 3.91583, 2.96443, 4.04778
1.00099, 1.98985, 1.01224, 2.96994
1.98595, 1.99985, 0.988163, 3.02194
0.965791, 4.97209, 2.94874, 1.97348
2.98094, 0.982542, 0.952999, 0.980527
3.98755, 0.972822, 2.03979, 2.00287
5.8977, 2.00654, 4.009, 1.98911
2.96382, 1.99352, 0.993921, 1.9872
2.97684, 1.99599, 0.996948, 0.000000
5.94938, 0.000000, 1.99355, 1.01996
3.97024, 0.000000, 2.00271, 2.97993
1.04701, 5.93995, 3.00651, 0.989869
2.01685, 2.0223, 3.9353, 2.94238
2.95059, 0.000000, 0.993738, 2.01757
1.02859, 1.98522, 1.98838, 2.95884
1.9913, 0.988463, 1.02859, 0.998659
0.000000, 1.98577, 0.970123, 0.000000
1.99078, 1.97427, 1.96825, 0.000000
2.0119, 2.00571, 4.99553, 2.98784
0.000000, 3.96365, 1.00033, 1.96556
0.989461, 2.00286, 3.99422, 3.93489
4.98066, 0.000000, 0.000000, 5.00226
3.00885, 0.990416, 1.0356, 1.99032
1.99513, 1.98172, 2.96318, 1.00539
1.02371, 0.95315, 2.96391, 1.01361
0.994792, 1.9826, 3.99801, 2.98446
3.00198, 6.93457, 1.99966, 0.991414
3.97162, 0.000000, 0.999482, 2.00401
0.000000, 1.00583, 5.01837, 3.94481
0.000000, 0.998131, 3.00506, 0.995168
1.98974, 6.96098, 3.00244, 0.960941
0.000000, 3.96438, 0.980244, 1.99248
1.98396, 5.00763, 5.06466, 2.97942
4.00033, 2.95406, 2.00698, 0.000000
0.979422, 1.01403, 6.92897, 4.00674
2.97671, 1.98548, 2.96256, 1.99156
1.99247, 1.00076, 1.98688, 2.98011
2.97575, 2.99359, 3.00806, 4.92292
4.99576, 1.99154, 4.00558, 2.99061
3.96046, 2.01195, 0.993219, 2.0053
5.02533, 2.00903, 2.99437, 1.00037
2.98811, 2.00145, 2.00057, 5.94186
3.9973, 0.979151, 0.000000, 0.993375
4.9748, 1.99571, 0.991943, 3.96861
1.97902, 0.984821, 3.03842, 2.01294
0.95315, 2.98142, 0.980244, 1.00127
0.982377, 5.96931, 3.97836, 2.00715
3.00561, 5.96666, 1.99587, 3.98447
3.98542, 5.97112, 0.997172, 2.0204
2.98336, 0.991414, 4.19327, 1.98903
0.991785, 1.99609, 1.97935, 0.000000
1.97551, 4.94494, 3.97324, 2.96654
0.000000, 2.01659, 0.000000, 2.01741
1.98229, 6.02916, 0.987345, 1.99992
0.96292, 0.986179, 2.01168, 3.97695
1.99796, 0.995843, 2.95678, 2.98285
1.00998, 0.988463, 5.97178, 3.93171
0.985709, 0.997843, 3.0274, 1.99338
5.92595, 0.977429, 1.02936, 1.99089
0.983508, 0.986465, 5.96115, 0.98897
0.988969, 0.000000, 2.98962, 2.99777
0.000000, 1.99633, 3.97627, 2.97623
3.15517, 2.00246, 3.95932, 4.99188
2.97779, 0.988275, 2.99841, 1.96993
1.9777, 2.12633, 0.000000, 1.97413
2.02796, 3.042, 1.99321, 1.94129
0.000000, 4.00304, 6.93699, 0.000000
3.96148, 0.989105, 2.94422, 4.93274
2.99061, 3.96701, 1.97097, 0.991943
1.00886, 5.97966, 2.96036, 4.02453
2.98256, 2.95873, 2.0062, 1.99753
1.98451, 4.94295, 1.99513, 2.99798
5.96939, 2.98801, 3.02994, 2.01875
2.00341, 6.99892, 4.97592, 0.980244
5.9885, 5.94413, 0.999482, 1.01349
1.96674, 1.98626, 2.99118, 1.98344
3.98805, 5.94406, 0.000000, 1.97726
2.9584, 3.99648, 1.99562, 1.97585
3.97412, 0.978767, 1.98469, 2.98077
0.97911, 5.95005, 1.00387, 3.00418
4.97479, 2.00903, 1.99874, 3.98745
3.00149, 1.00922, 1.99749, 2.99684
3.04048, 4.95423, 0.000000, 2.97015
4.93839, 1.9748, 2.00222, 2.96633
2.01704, 1.97124, 0.000000, 2.9562
7.91893, 3.12388, 1.99602, 0.000000
1.97184, 3.98616, 2.98285, 0.991445
5.94373, 2.98499, 5.974, 4.97708
1.00476, 6.98856, 1.95826, 4.00731
1.97348, 0.000000, 1.00567, 1.98962
3.00632, 7.93229, 0.996545, 6.97416
1.93338, 1.98971, 5.91938, 2.98245
3.28832, 6.01744, 3.96946, 3.96229
3.95872, 2.95207, 3.03349, 4.98846
3.99552, 2.99937, 1.00287, 1.9995
2.93086, 0.000000, 0.987035, 3.96287
7.06009, 1.00866, 3.05595, 1.99222
3.96855, 4.01707, 3.99393, 3.95914
5.95694, 4.03787, 1.94754, 6.93859
4.01099, 3.9908, 7.93588, 3.97692
1.9781, 6.97141, 7.9039, 6.02431
2.99246, 3.00563, 2.93161, 8.00466
7.95036, 5.01232, 2.95893, 2.99056
4.03447, 5.00966, 4.9973, 7.91627
5.03222, 4.92828, 6.0753, 0.99354
4.95911, 3.00464, 7.01629, 10.0318
2.96063, 3.96637, 5.30699, 6.95596
5.02836, 2.98707, 6.00428, 8.1256
6.99687, 7.98363, 3.99149, 4.91783
3.05238, 5.9819, 4.95757, 4.98318
3.9631, 4.01105, 6.95693, 6.0032
6.98787, 8.95381, 2.9948, 2.97035
4.01239, 5.02367, 1.97588, 6.01337
5.00287, 0.997665, 4.99517, 6.93251
5.92143, 2.95921, 7.12254, 4.02425
6.96154, 4.99899, 4.97418, 1.97198
7.98285, 1.98251, 8.9685, 3.01807
4.92876, 6.9505, 6.93559, 7.95446
1.98848, 7.90483, 13.0219, 6.95942
8.30397, 7.00077, 10.958, 8.96263
8.93005, 11.0359, 7.97621, 5.99546
9.93104, 5.9675, 10.8604, 3.00985
6.98157, 9.8867, 5.96075, 3.9271
11.9411, 14.1148, 11.9059, 14.8923
12.9946, 12.9568, 5.90852, 11.9099
9.06854, 12.0681, 8.99286, 14.0826
13.9197, 15.9139, 14.8868, 15.0149
7.95066, 16.9057, 11.9914, 10.9827
15.9818, 15.0356, 19.2547, 17.855
21.1533, 19.8802, 20.1161, 15.2305
17.8034, 22.0731, 21.9561, 23.8444
16.9343, 26.8899, 24.8681, 17.8681
25.9108, 26.176, 30.4314, 22.8944
18.9084, 29.0953, 26.9652, 21.5063
30.0279, 26.9672, 27.781, 26.0606
41.2079, 38.9919, 41.6963, 39.8831
36.7059, 25.8538, 49.7319, 31.8098
46.9446, 33.0887, 47.7751, 50.9765
61.3732, 37.9062, 56.009, 60.0554
66.0928, 64.2425, 56.2162, 90.8039
74.756, 77.6579, 87.8283, 114.825
137.266, 129.813, 157.074, 213.98
257.672, 323.937, 423.982, 506.585
688.298, 834.871, 1118.98, 1569.38
2110.32, 2598.81, 4683.35, 7705.04
7980.88, 8898.67, 8877.64, 6683.06
4933.22, 5474.49, 6317.8, 4932.58
2746.85, 1336.02, 618.631, 323.507
208.715, 151.425, 126.209, 103.096
93.9455, 66.6679, 59.9531, 57.2909
43.2746, 51.7908, 41.003, 45.1584
32.0981, 26.963, 33.8381, 30.1752
37.1034, 39.0209, 24.9919, 27.8835
30.7571, 22.9379, 23.0463, 26.2482
14.9782, 24.9024, 19.0445, 15.9112
23.886, 14.9258, 23.9423, 23.9576
27.9289, 12.9214, 11.928, 17.006
10.0696, 10.0135, 13.8936, 21.1535
14.1728, 15.9514, 10.9633, 19.0595
10.9481, 10.2589, 10.9436, 14.9353
10.9188, 12.027, 14.9688, 11.0167
6.04341, 11.9649, 8.93707, 12.9278
7.91622, 13.9515, 13.9506, 11.9761
11.9038, 13.9101, 12.9796, 6.00477
11.8646, 9.96808, 13.0198, 13.1098
2.99453, 8.94716, 8.23159, 4.02217
4.05292, 10.9833, 14.8682, 4.95427
5.96182, 12.9121, 9.00071, 8.90857
10.3204, 7.96579, 9.04012, 6.95818
4.97432, 11.9777, 3.00906, 6.03814
8.87767, 6.00753, 8.00673, 2.97965
5.00676, 6.96622, 8.92274, 6.01147
7.92549, 9.03933, 6.95957, 5.96854
2.98812, 5.9612, 7.91712, 4.96439
3.9952, 4.0514, 1.97915, 2.98275
7.90446, 1.98991, 7.96008, 8.31112
4.04646, 6.8796, 4.01726, 8.99094
6.98209, 1.96389, 3.95563, 3.02111
7.0124, 5.92595, 3.01105, 5.0056
9.98353, 8.08511, 5.98723, 5.12546
4.95381, 2.98621, 7.9851, 4.96412
1.98886, 5.01397, 2.96703, 2.9832
3.06384, 7.96499, 5.95202, 2.99915
5.96507, 4.98178, 4.97782, 1.00278
7.13021, 5.00164, 6.98001, 0.986584
6.94701, 9.00851, 5.07196, 1.97689
3.93975, 6.01361, 6.01337, 4.98844
3.99385, 5.93135, 6.95644, 2.01757
4.95353, 3.96986, 5.99699, 5.04432
1.00258, 4.95174, 2.99507, 5.00906
9.03039, 8.99704, 4.02068, 6.91713
2.99339, 6.93658, 4.99677, 4.95666
3.97051, 1.9882, 3.00528, 3.94584
1.9828, 6.97137, 3.94699, 3.97814
5.02822, 2.98207, 6.95319, 2.00281
3.94628, 2.96822, 3.9574, 6.97568
0.98988, 5.96005, 1.96009, 0.997784
4.97478, 4.00848, 4.97304, 6.96711
3.99117, 0.98752, 3.99131, 4.97543
2.99261, 3.96477, 4.01143, 3.95692
2.01163, 4.94152, 3.92266, 2.96261
4.05182, 2.00635, 4.01999, 9.91545
0.990596, 8.9908, 6.00337, 4.00347
4.96644, 2.03138, 4.99823, 6.91586
0.996545, 1.98656, 3.98459, 0.995216
3.99443, 5.95994, 2.98619, 5.95868
3.01919, 1.00259, 2.95996, 0.979151
3.98385, 3.05227, 3.92027, 1.94884
1.99973, 3.97574, 2.94241, 2.99308
4.89868, 0.97156, 2.95471, 2.96289
2.99025, 4.02571, 1.00486, 3.93792
4.9498, 3.95447, 6.01973, 1.98777
3.9779, 2.99896, 2.99611, 5.01584
3.91927, 2.96513, 5.96836, 0.000000
3.96487, 2.96054, 4.95886, 3.00531
4.98087, 1.99095, 4.99495, 0.000000
0.993782, 3.97925, 2.99277, 5.96377
0.991785, 3.01039, 0.000000, 2.03678
1.98882, 2.00357, 4.97688, 2.95353
4.00216, 1.98382, 5.9381, 2.99215
3.92246, 8.96095, 1.95159, 5.01818
0.000000, 0.000000, 3.9216, 4.95748
1.98467, 1.99586, 4.96141, 1.0092
3.01506, 4.98915, 2.99801, 2.02142
4.00149, 2.98212, 2.98488, 5.05148
3.00034, 3.95898, 2.00951, 0.000000
0.989402, 3.97801, 2.98296, 0.000000
3.95011, 3.00902, 2.01507, 1.97767
3.97839, 2.99858, 2.97078, 0.000000
2.97748, 4.95594, 1.02261, 6.01353
2.00528, 2.02145, 0.000000, 1.97152
1.95094, 2.00059, 1.00368, 1.00146
1.98456, 4.9521, 3.96283, 0.979395
6.01855, 0.978951, 1.02077, 1.98381
4.96483, 2.96336, 1.9553, 5.00755
1.99531, 1.99902, 0.980244, 0.995699
1.97671, 0.000000, 3.00418, 3.01841
2.9699, 0.995634, 1.00716, 2.0005
1.0356, 2.99128, 4.98137, 0.994251
4.9438, 3.97192, 1.99082, 3.95269
0.000000, 2.97313, 0.000000, 2.01487
3.94347, 1.99795, 3.93608, 1.98277
4.95736, 0.988787, 1.99552, 1.98508
0.976638, 2.98248, 1.00539, 0.998356
5.98368, 2.98852, 0.000000, 0.000000
3.01371, 4.94732, 1.97063, 3.96487
1.01585, 1.96381, 3.01081, 2.98587
2.95232, 0.000000, 2.96837, 0.988983
7.93244, 0.000000, 3.98713, 2.93041
2.98786, 3.97334, 0.980385, 3.00173
1.02371, 1.99377, 0.000000, 4.02492
0.978235, 1.99507, 1.97775, 3.94698
0.993669, 1.97877, 3.98673, 3.00441
0.979422, 6.02789, 2.98175, 4.94233
0.000000, 1.96021, 1.96879, 3.97316
6.96572, 5.00067, 1.98502, 1.99283
2.01169, 0.000000, 3.92524, 0.980679
1.97414, 1.01364, 0.994251, 1.99628
1.96668, 3.00921, 3.99333, 2.96972
3.99652, 0.994792, 1.92386, 3.00346
3.98741, 0.988983, 0.999183, 4.95108
0.000000, 1.01445, 6.00172, 0.991785
1.02824, 4.9582, 3.05096, 4.02139
1.96957, 2.98545, 3.01969, 4.03178
2.96737, 3.96123, 0.997966, 1.0018
1.00186, 3.00358, 2.98268, 0.985318
1.00594, 2.99959, 3.99539, 3.94962
2.99831, 3.02785, 4.00776, 2.96631
5.94909, 4.95196, 1.99173, 2.99696
2.96836, 0.000000, 0.988569, 2.94557
2.93765, 1.95974, 3.95641, 0.981625
0.000000, 3.99403, 0.000000, 5.042
0.000000, 1.99839, 0.992366, 3.95732
3.93928, 1.93958, 2.01913, 2.99148
2.9857, 1.01098, 0.996913, 3.03614
5.94782, 3.02979, 1.00658, 2.98815
2.9478, 1.96059, 4.03923, 4.02814
0.000000, 1.00076, 1.98141, 1.96476
1.29912, 2.97939, 0.995216, 4.97935
3.95168, 0.997875, 1.01715, 5.0268
2.95726, 0.977426, 2.99381, 2.96619
3.00053, 1.97305, 4.99021, 5.0454
0.990101, 0.000000, 1.00822, 5.93737
0.978134, 4.9443, 5.00129, 2.02561
0.97156, 2.97297, 1.99995, 0.978306
5.91035, 3.14012, 3.01564, 1.99301
0.982887, 2.97453, 5.95966, 0.987067
0.000000, 2.96334, 1.96485, 0.973593
1.00455, 2.97175, 0.997875, 2.0267
3.02889, 1.02997, 1.96367, 2.96128
3.02312, 4.02561, 2.95791, 2.98315
4.96949, 3.01005, 1.99594, 3.01554
0.992617, 2.97575, 5.909, 1.98828
3.97729, 0.983919, 2.99335, 3.0101
2.98296, 0.979389, 4.00616, 3.04496
0.997301, 1.9586, 1.00085, 0.992769
3.00802, 2.00734, 0.000000, 2.008
2.02135, 3.00034, 7.89875, 1.98851
2.95865, 3.95549, 0.97107, 1.98108
3.00193, 1.00109, 1.97983, 6.12608
2.99647, 1.98389, 1.97884, 2.0095
4.95416, 2.00655, 0.000000, 3.95226
2.00509, 0.990698, 1.9611, 1.96454
1.9937, 1.01487, 5.02576, 3.93047
3.01218, 5.99393, 6.96553, 4.9512
0.988022, 0.983508, 4.07399, 2.97271
2.00192, 2.00221, 0.987035, 4.96092
2.99355, 0.000000, 1.01865, 0.987344
0.986182, 0.000000, 0.989522, 0.000000
1.01091, 0.988589, 3.02714, 1.98793
0.000000, 0.991394, 1.98651, 2.00671
1.01709, 3.94771, 1.96924, 2.97928
1.01777, 2.95506, 1.96211, 1.99887
1.9674, 2.01037, 5.91521, 1.98947
2.99256, 2.9877, 4.06669, 1.98036
1.97634, 1.9745, 4.32953, 1.98693
1.99682, 4.01028, 0.000000, 0.977429
2.00287, 2.96662, 6.0398, 1.97252
3.98841, 4.98375, 2.00959, 2.987
0.970123, 3.96318, 0.986584, 1.97754
1.97695, 0.979395, 1.00015, 0.000000
1.99977, 1.9864, 0.996694, 0.000000
0.000000, 4.94756, 2.14526, 0.000000
3.95074, 1.9588, 3.95388, 2.98295
1.00552, 1.9893, 3.98244, 5.96426
0.996774, 0.991124, 0.000000, 0.000000
1.00207, 1.97988, 0.989869, 3.97005
7.00664, 0.000000, 4.93069, 3.97226
0.000000, 3.95635, 0.000000, 0.992197
0.993669, 2.99759, 0.990701, 2.00512
1.96485, 0.982377, 2.00605, 0.000000
4.97937, 1.0092, 0.981647, 0.000000
0.981773, 1.01557, 3.95331, 3.96351
2.94918, 0.980006, 1.97253, 0.000000
0.000000, 4.01681, 3.94483, 4.01198
3.01922, 0.992837, 2.01286, 3.00596
2.01503, 2.00533, 1.98177, 1.95427
1.96788, 0.000000, 4.01375, 4.0238
6.92795, 3.98058, 2.9568, 2.03669
1.01709, 2.98823, 2.96765, 1.95717
2.99702, 3.98887, 4.00136, 1.991
3.95388, 3.99197, 2.00301, 1.99324
1.01176, 0.972822, 1.99897, 3.96813
1.98264, 2.98177, 1.98941, 3.00599
3.98474, 1.97747, 1.01753, 4.97347
2.96365, 1.97289, 2.96527, 3.98939
2.98103, 2.97504, 1.9598, 1.95716
1.99246, 1.98702, 1.95189, 2.97078
4.97105, 1.03117, 0.000000, 0.000000
0.000000, 0.996545, 1.00076, 3.03746
2.99845, 1.98638, 2.012, 3.02094
0.988942, 2.97064, 1.98062, 2.97
2.98909, 1.97318, 1.95412, 3.98481
5.97475, 2.04692, 3.94383, 3.95069
0.982569, 1.95301, 2.98874, 1.00208
2.04134, 1.97163, 1.98272, 0.000000
3.95234, 2.97316, 4.00105, 1.97758
2.00607, 4.01901, 1.01009, 5.99747
1.96908, 1.99688, 2.96204, 5.94631
4.06182, 2.96372, 3.95958, 1.97122
4.94543, 4.99541, 2.96199, 1.98324
3.98165, 2.95569, 1.99556, 2.98251
2.97426, 2.98391, 4.02859, 2.00037
1.99232, 2.97886, 4.02541, 0.986875
0.996463, 2.01027, 1.98105, 0.000000
2.95087, 0.000000, 2.98801, 3.00866
1.97757, 1.96952, 1.99296, 3.99545
2.98208, 2.00246, 1.97942, 1.98697
1.00165, 1.97127, 5.00065, 1.01996
3.02164, 0.988163, 2.94571, 0.000000
4.95043, 4.96767, 0.989297, 0.980006
0.000000, 1.9848, 0.000000, 8.93852
1.93555, 2.91736, 0.000000, 1.00533
3.96397, 0.984537, 5.92598, 1.99564
4.99584, 1.02963, 2.97776, 6.94848
1.96069, 1.01052, 3.95173, 0.987345
5.00057, 0.000000, 2.99178, 4.00938
1.99077, 0.95315, 0.952999, 0.000000
1.98217, 4.94861, 2.97719, 2.98923
0.000000, 1.01709, 2.94279, 2.98812
4.02462, 1.97788, 1.97128, 4.94414
1.0085, 4.9839, 0.000000, 3.93321
0.000000, 5.94792, 0.96292, 3.00902
1.01901, 2.98374, 0.987345, 3.02117
0.000000, 0.996403, 1.96837, 1.96472
0.000000, 1.98127, 3.0422, 0.976638
1.96607, 3.96975, 2.94652, 3.946
4.99446, 2.01281, 3.00533, 0.000000
1.99661, 1.95298, 3.99383, 3.00177
1.97589, 0.000000, 2.97041, 0.998276
3.93861, 4.92098, 2.9851, 1.99443
2.00302, 0.993782, 0.978134, 0.970123
5.01788, 3.99337, 3.01928, 3.11498
0.000000, 0.997094, 2.98561, 2.9653
4.95327, 3.00067, 0.989021, 0.000000
0.977426, 3.95353, 2.01388, 0.998603
1.98403, 0.000000, 1.99366, 1.99318
1.99095, 2.952, 2.01382, 5.037
2.91655, 0.999618, 2.00361, 1.98759
3.13018, 0.000000, 3.97567, 4.012
2.0344, 2.97343, 1.98736, 0.991969
4.0237, 1.99906, 0.000000, 4.98075
0.95315, 1.14147, 1.99247, 2.97784
4.98261, 1.99856, 2.99954, 5.94462
4.95482, 2.02993, 4.01305, 0.995516
2.91843, 4.95846, 0.000000, 1.97032
0.000000, 0.000000, 1.95273, 3.9474
2.99616, 0.978662, 0.000000, 0.993514
1.01013, 0.980244, 0.000000, 0.990536
1.97593, 2.94467, 3.02052, 2.9706
1.99125, 2.00215, 1.98791, 1.02202
2.97801, 1.99761, 1.98157, 0.991793
3.90397, 2.99241, 1.00138, 1.97423
2.03341, 3.95665, 2.95584, 5.92519
6.00448, 2.00059, 2.00075, 3.9754
0.9942, 1.97557, 2.00161, 3.01681
2.01889, 4.96123, 2.00696, 0.993866
2.93475, 6.9815, 4.9821, 3.04287
6.03987, 2.01381, 3.96174, 3.0166
3.95338, 5.95652, 2.98739, 2.02991
2.01308, 0.000000, 4.0354, 4.9658
0.000000, 0.99191, 4.96193, 5.99133
0.991785, 0.000000, 2.99724, 4.01214
1.99131, 2.0278, 2.98544, 1.98265
2.04215, 0.988942, 0.987035, 0.997172
1.97558, 0.000000, 3.01755, 1.98659
3.9743, 4.92203, 1.99044, 2.00802
4.97257, 1.98585, 3.95526, 4.0018
2.94986, 1.04108, 1.96492, 4.93704
1.04108, 3.00746, 2.001, 3.98803
0.989821, 2.99783, 4.00172, 1.95826
1.98647, 0.971, 0.999261, 1.02859
2.9507, 1.0032, 7.92791, 0.999002
3.00485, 4.98374, 1.02243, 0.000000
0.000000, 4.98489, 0.000000, 0.983874
2.02105, 0.999008, 0.000000, 1.99346
4.04039, 1.95876, 4.02523, 3.9921
1.98677, 6.92224, 2.97073, 2.96219
0.991969, 2.04914, 1.95845, 1.00085
5.98984, 0.979422, 3.01383, 1.97961
0.000000, 1.00488, 0.000000, 4.97817
1.01228, 0.999618, 2.99192, 2.04713
2.98427, 3.9775, 4.99923, 1.9711
5.94284, 4.00253, 1.99295, 0.000000
2.98935, 0.998276, 2.98804, 1.97152
0.96292, 1.97232, 0.981773, 2.95802
3.01288, 0.000000, 3.93278, 6.01023
2.99753, 4.96435, 3.00025, 0.000000
0.983123, 3.9486, 2.96608, 4.98674
1.98562, 3.00192, 0.98633, 3.95192
1.00552, 0.990903, 1.98909, 4.01418
2.98738, 6.08005, 3.93804, 5.94303
1.02767, 3.06604, 1.96269, 2.00361
3.99646, 2.01473, 0.000000, 5.88242
0.987012, 0.996041, 4.98389, 0.98988
4.97148, 0.965385, 0.988275, 2.96419
4.94923, 4.05036, 0.000000, 1.98156
0.000000, 0.971, 1.96105, 1.96112
5.02689, 0.000000, 5.998, 1.00761
3.01294, 2.97494, 0.995516, 0.983989
3.95387, 0.981658, 3.99022, 3.95374
2.97975, 2.97873, 2.00908, 0.000000
1.97046, 3.99117, 1.97364, 2.95577
2.9611, 1.96901, 1.95133, 0.987768
2.98828, 1.99315, 3.02037, 0.000000
1.98252, 1.98026, 0.988942, 2.95449
1.00139, 4.02321, 1.96949, 3.98443
2.93039, 2.97625, 1.01098, 2.99539
6.99569, 2.98526, 6.97767, 1.97147
1.99985, 4.94552, 2.99791, 1.01585
2.92605, 0.998446, 3.97969, 0.988942
1.98381, 1.98445, 3.96095, 1.98749
0.991943, 3.97631, 1.98106, 3.95095
2.99949, 3.00118, 2.95503, 0.974622
2.00713, 0.98706, 0.000000, 0.989273
5.95982, 2.96588, 1.99398, 0.000000
1.96047, 4.96522, 0.974622, 3.99772
1.98721, 0.989522, 2.95549, 1.99449
0.986875, 2.01933, 0.000000, 0.000000
0.000000, 0.000000, 0.990903, 2.98657
1.00005, 2.97179, 1.99094, 2.98615
0.000000, 3.96973, 1.0092, 0.971
4.9456, 2.97345, 2.01277, 1.95457
4.01177, 3.98824, 2.96632, 2.98056
3.93889, 1.99194, 0.994484, 2.98264
0.999809, 6.00312, 1.00099, 2.97823
2.96688, 3.00426, 1.97498, 5.97789
2.96889, 0.000000, 0.985608, 2.01883
1.01996, 5.02045, 1.97123, 1.0054
1.01493, 0.960941, 1.96913, 1.99982
0.000000, 1.00139, 0.000000, 1.01996
1.0056, 2.96662, 2.01763, 2.97469
2.97284, 1.99222, 1.00138, 3.97017
0.998328, 3.9353, 1.96965, 0.000000
1.98824, 5.92621, 0.000000, 3.00046
1.97963, 0.000000, 0.998924, 0.952999
1.97978, 1.96587, 2.02534, 0.982225
1.99377, 2.9824, 2.97624, 0.000000
3.01947, 1.99973, 3.95804, 0.971962
2.00956, 0.984348, 3.93256, 0.99354
1.99224, 3.9204, 0.000000, 4.00627
2.0061, 1.97576, 1.95737, 0.000000
0.000000, 1.98389, 1.00917, 0.000000
2.97531, 3.024, 2.91284, 3.98853
4.9856, 0.995372, 3.92491, 3.9905
3.97925, 0.000000, 0.000000, 0.000000
0.000000, 1.9736, 4.01917, 1.99335
1.00259, 0.000000, 1.98824, 1.96494
2.01084, 0.982569, 4.00591, 5.01115
0.998328, 0.983989, 3.99328, 5.92222
2.96916, 1.01765, 2.9606, 0.000000
2.94073, 4.01042, 2.01025, 5.0213
2.00234, 1.96976, 1.99145, 0.991785
3.98262, 0.000000, 5.02563, 1.97223
3.00667, 5.93535, 3.03604, 1.03082
0.990244, 0.952999, 3.96583, 2.95898
4.02229, 4.01542, 4.03818, 3.01553
2.97839, 3.01442, 2.00923, 1.00329
6.00063, 4.00853, 1.98687, 2.96303
3.03268, 2.00953, 1.0018, 0.981625
4.0042, 2.00718, 4.01219, 3.01189
2.98817, 2.03369, 3.97457, 2.01712
2.9985, 4.94538, 3.02375, 3.00434
1.97643, 2.97774, 3.98103, 2.0028
4.01754, 1.99347, 1.97138, 0.992427
0.99354, 2.95385, 5.00085, 1.01052
2.01858, 2.0116, 3.94643, 6.0344
3.98192, 1.01936, 1.98147, 4.97084
0.000000, 1.0054, 2.98412, 2.94846
1.00596, 2.97002, 1.99541, 3.9789
2.96056, 3.0289, 2.98822, 1.96814
1.97298, 3.97994, 2.97524, 3.95096
1.96348, 2.97211, 1.9929, 4.96608
0.990386, 0.998924, 3.95517, 4.96543
3.00681, 7.91052, 1.95639, 0.980385
5.06308, 2.00083, 4.98285, 6.96585
2.99076, 5.96718, 5.97737, 2.04585
1.00658, 3.99559, 4.99391, 5.94296
1.03064, 1.97823, 1.00394, 5.94103
3.96444, 4.96591, 4.99592, 4.95866
2.99061, 2.99278, 2.96715, 2.9858
1.01606, 2.99535, 1.99617, 1.974
4.95719, 2.99625, 2.98555, 4.95954
0.991819, 1.02077, 0.000000, 0.968199
4.00367, 2.97613, 0.995634, 1.01086
2.9908, 1.97681, 1.98511, 2.02129
2.94824, 2.99842, 1.98868, 3.93261
3.01351, 0.987012, 0.000000, 0.997464
1.99823, 0.000000, 2.93955, 3.03205
3.94546, 0.972822, 3.97128, 0.989402
1.98804, 2.99583, 1.99964, 0.968199
1.97856, 2.98015, 0.984784, 0.994484
2.93527, 1.96392, 2.97137, 0.965791
2.0075, 6.96525, 3.03089, 2.97097
3.97672, 1.01147, 1.00022, 3.01713
4.95979, 0.000000, 3.9819, 1.96584
0.000000, 3.03956, 0.993219, 3.96265
4.01702, 0.997665, 0.000000, 2.99845
3.04688, 2.93117, 0.988022, 6.96292
1.98765, 2.01075, 4.97571, 3.00442
3.98032, 0.994689, 2.96422, 3.02931
0.95315, 0.975459, 2.9624, 1.01791
1.00259, 5.09193, 5.04184, 3.99471
0.97107, 1.97025, 3.01315, 0.992769
0.971, 1.99879, 0.992417, 1.99864
2.0096, 0.996041, 2.99928, 1.01709
2.98606, 2.00412, 0.000000, 1.97739
0.988733, 2.97136, 0.994707, 1.01098
0.995985, 1.98776, 3.96489, 4.97344
3.00116, 2.94527, 6.95922, 0.000000
1.98361, 0.000000, 4.03349, 3.95729
4.99702, 3.01977, 1.99647, 4.00214
4.00602, 2.9599, 1.99442, 0.000000
3.01866, 4.14038, 3.98478, 0.000000
5.94503, 2.00087, 1.00449, 4.99587
0.000000, 1.99762, 4.02689, 3.98525
0.000000, 3.01658, 0.995434, 2.93288
2.9805, 1.97485, 1.97722, 3.98035
3.89393, 1.95338, 1.97678, 0.991993
5.94642, 3.9574, 1.98775, 1.97845
0.000000, 1.95774, 6.01025, 0.000000
0.984665, 2.99462, 2.99343, 2.00209
0.000000, 1.99407, 1.98369, 1.99443
9.15843, 2.99096, 2.98138, 0.984872
4.99493, 0.998753, 0.000000, 3.93377
2.98752, 4.93045, 3.02296, 0.000000
0.000000, 2.97684, 4.94212, 1.99723
0.000000, 1.98425, 2.99307, 0.000000
2.98658, 1.97033, 0.991943, 1.00015
2.98229, 2.98053, 0.998446, 1.00146
2.00259, 0.000000, 3.95404, 2.96297
0.000000, 3.01025, 1.00811, 1.96884
0.996913, 5.9775, 0.000000, 8.99007
1.03375, 3.99409, 5.29067, 2.95565
1.01091, 4.93347, 6.01541, 2.98714
0.993375, 1.99704, 0.980244, 4.99072
3.94804, 4.03802, 0.000000, 1.98054
4.0197, 0.000000, 1.96751, 1.01086
1.0063, 2.96387, 1.97046, 0.979389
1.00122, 0.981639, 0.000000, 1.00024
2.9876, 0.000000, 0.984537, 3.98789
2.97309, 4.96602, 0.000000, 1.03082
3.02216, 0.000000, 2.00929, 4.01604
1.94879, 0.000000, 1.00811, 0.98867
5.93315, 1.97479, 2.01201, 2.02982
1.95114, 0.969502, 2.00193, 0.978134
3.98037, 4.97884, 0.98633, 1.94535
1.98932, 2.13769, 2.04342, 2.9878
0.984821, 1.00617, 0.976638, 2.00875
0.000000, 2.00804, 1.97025, 1.93671
0.984057, 0.99647, 3.94662, 3.02575
0.000000, 3.14374, 3.03425, 2.97155
3.01231, 1.01009, 3.9305, 0.994707
3.01759, 0.986126, 0.98995, 1.96136
0.989021, 1.9815, 1.00476, 0.000000
4.0633, 2.97245, 2.97542, 0.000000
2.00946, 0.993645, 0.970628, 4.94917
0.000000, 2.96797, 2.97316, 3.02972
4.95533, 2.97473, 3.00227, 0.992197
3.99979, 0.988455, 2.00755, 2.01354
1.00596, 4.91922, 2.00109, 4.01077
2.01778, 1.96343, 4.94851, 1.99234
5.01551, 2.01449, 0.000000, 1.00395
0.000000, 1.98746, 3.97054, 5.9696
0.98752, 2.00192, 2.01274, 0.985255
1.99586, 0.000000, 1.98483, 1.00033
3.00325, 2.98928, 0.99191, 2.00685
0.000000, 2.96699, 2.00484, 0.999482
0.000000, 3.97535, 0.996061, 0.996403
3.02359, 5.96065, 2.99109, 2.94981
1.99461, 0.99786, 1.97999, 1.98179
4.96317, 3.03105, 5.05165, 2.99212
4.93639, 0.000000, 1.9685, 1.99398
4.98196, 1.98361, 0.988275, 1.00379
1.9802, 1.00449, 3.97866, 0.982569
3.98296, 4.96924, 3.97519, 2.99195
1.97408, 0.965385, 0.987345, 1.95905
2.975, 0.986584, 4.02892, 1.98848
2.96921, 0.000000, 2.01855, 2.99376
3.96281, 3.91877, 2.93494, 0.000000
4.95298, 0.000000, 3.9603, 2.98304
1.00436, 0.998446, 1.00395, 3.97792
1.02077, 3.95662, 1.97815, 0.000000
0.984966, 1.94304, 1.99876, 0.000000
0.983123, 2.00087, 0.986473, 1.99287
3.05211, 2.97962, 1.99454, 1.98059
1.9923, 1.99013, 0.984872, 2.99141
0.000000, 2.9992, 1.9986, 0.979151
2.05321, 0.000000, 2.97724, 1.00377
1.00005, 1.99696, 0.994179, 2.99894
2.9697, 1.98028, 0.998753, 1.95384
1.98367, 0.000000, 2.97156, 0.000000
4.03723, 4.00888, 1.95591, 1.98813
2.98019, 0.000000, 3.00477, 2.98985
1.97352, 2.9854, 2.00115, 1.96693
1.9971, 1.00207, 2.96109, 3.05721
1.02498, 1.99322, 1.01925, 0.982066
4.96262, 0.000000, 0.000000, 2.93839
0.000000, 2.96185, 2.98455, 1.9939
4.016, 0.986179, 1.95856, 0.98633
3.96074, 4.92273, 1.9635, 3.01927
3.96264, 1.0056, 1.96548, 1.99935
0.000000, 2.98544, 2.95823, 0.96292
1.97019, 0.994105, 0.000000, 1.00438
0.000000, 2.95453, 0.000000, 0.975412
2.02634, 2.00031, 2.97554, 1.01389
3.06596, 3.02187, 2.98662, 2.95569
1.95603, 0.992146, 3.15372, 4.93108
2.97421, 0.973593, 3.96158, 2.95898
5.03968, 1.98746, 0.999809, 1.97278
7.95782, 0.997652, 3.98094, 0.993219
2.00491, 3.99144, 4.95697, 0.993738
0.000000, 0.993866, 2.98489, 2.98751
3.01861, 0.000000, 2.00011, 0.000000
1.98141, 0.000000, 2.00465, 3.94564
0.95315, 1.9843, 2.94635, 0.000000
4.00399, 1.98896, 2.99201, 1.98572
4.96913, 0.000000, 1.0056, 0.000000
2.9666, 0.000000, 1.9759, 1.99955
2.98717, 3.95295, 3.99069, 2.00256
1.9918, 0.984784, 3.00417, 1.00886
1.02498, 0.979395, 0.000000, 1.97162
1.00479, 2.00883, 0.000000, 3.00302
1.97311, 3.97235, 0.000000, 2.96851
1.92971, 1.00207, 1.99686, 0.995434
1.00196, 2.00168, 4.93713, 3.00045
2.96175, 0.994962, 0.999261, 1.98183
3.0156, 1.98586, 3.01911, 1.0009
1.0018, 0.99925, 1.96062, 2.96661
6.14298, 2.01012, 0.000000, 3.9946
2.9626, 4.93392, 2.00396, 2.99347
0.000000, 4.98733, 2.99012, 0.997815
4.96631, 3.00543, 2.97759, 2.98557
3.98729, 2.00747, 1.00476, 1.96833
0.000000, 3.00292, 2.96869, 3.98483
3.96479, 0.952999, 6.02911, 1.98317
0.978134, 6.99446, 2.98041, 3.96687
0.991969, 1.98482, 1.01013, 0.993959
0.982225, 0.982887, 2.97418, 0.000000
2.94368, 3.96713, 2.94518, 2.94334
2.97888, 5.95062, 0.000000, 0.000000
1.97889, 2.97784, 2.95469, 2.99513
0.000000, 1.00914, 0.000000, 3.98307
0.000000, 0.997601, 1.99347, 1.98661
1.97502, 1.94096, 1.96973, 0.000000
1.9942, 5.02901, 2.97935, 1.96289
2.93454, 3.97877, 1.98879, 2.9828
2.99458, 4.96856, 2.96708, 1.99187
1.95751, 1.98855, 0.000000, 0.000000
0.989273, 1.02828, 1.9801, 2.97786
2.97752, 3.94478, 2.01895, 5.98844
3.02304, 0.000000, 1.97977, 1.00005
0.984412, 1.00552, 0.000000, 4.01772
3.96529, 1.99939, 2.97185, 2.98694
1.98298, 3.96057, 4.96323, 1.98191
1.0092, 6.94905, 4.03479, 5.01654
4.01708, 4.95005, 0.994782, 1.959
2.96468, 2.987, 3.93821, 0.99191
1.98451, 1.96137, 1.96294, 2.96653
1.00099, 4.00021, 3.98384, 1.01345
4.0183, 5.98684, 4.01475, 0.000000
2.95245, 1.02767, 1.99864, 1.98814
0.970123, 1.03064, 4.97318, 1.98733
2.95782, 6.03534, 3.96911, 3.00812
0.000000, 3.94767, 0.984659, 1.99241
0.986179, 0.992222, 1.00455, 3.02744
1.99029, 1.99878, 1.99436, 2.96784
0.979151, 1.00436, 1.98275, 4.98593
0.981356, 1.94322, 2.98625, 2.98715
2.00725, 1.00712, 4.97823, 6.92786
1.987, 1.97941, 3.96134, 0.000000
1.98309, 3.04008, 5.00543, 0.000000
0.000000, 3.97315, 3.98332, 0.983888
1.0019, 5.96368, 0.000000, 3.97543
3.94985, 1.98297, 0.000000, 1.97057
1.00552, 5.02543, 1.98252, 4.03115
1.99609, 1.97538, 3.00924, 2.97171
2.02208, 2.94918, 3.95843, 1.99904
1.00317, 2.00348, 0.99354, 4.995
2.99307
*END

*EOF
