*TYPE		=  Raw
*CLASS		=  ASCII CLASS
*SAMPLE		=  A56
*COMMENT	=   
*FNAME		=  A56_omega_1_ω.asc
*DATE		=  13-Jun-19 17:17

*GROUP_COUNT	=  1
*GONIO		=  SmartLab(In-plane), 0.000000
*ATTACHMENT	=  χφZクレードル
*ASC		=  0, 0, 0.000000, 0.000000
*I_MONOCHRO	=  Ge(220)x2, 0.000000
*FILTER		=  None
*C_MONOCHRO	=  No_unit, 0.000000
*SLIT_NAME	=  0, 入射スリット
*SLIT_NAME	=  1, 受光スリット1
*SLIT_NAME	=  2, 受光スリット2
*COUNTER	=  HyPix 3000(H), 0
*POS_FORMAT	=  0
*SCAN_AXIS	=  Omega
*MEAS_MODE	=  Continuous Scanning
*TARGET		=  29
*XRAY_CHAR	=  K-ALPHA1
*WAVE_LENGTH1	=  1.54059
*WAVE_LENGTH2	=  1.54441
*THICKNESS	=  0, 0.000000
*MU		=  0, 0.000000
*SCAN_MODE	=  Omega
*SPEED_DIM	=  sec./step
*XUNIT		=  deg.
*YUNIT		=  counts
*SCALE_MODE	=  1
*REP_COUNT	=  0
*SE_COUNT	=  0
*STD_MATERIAL	=  Unknown, Unknown, 0.000000, 0.000000, 0.000000, 0.000000, 0.000000, 0.000000
*LATT_CONS	=  0, Unknown, Unknown, 0.000000, 0.000000, 0.000000, 0.000000, 0.000000, 0.000000
*SEC_COUNT	=  1
*TSPEC_SIZE	=  0
*EXTRA_SIZE	=  0
*MEMO		=   

*BEGIN
*GROUP		=  0
*START		=  31.1287
*STOP		=  46.1287
*STEP		=  0.01
*OFFSET		=  66.2574
*SPEED		=  0.196312
*SLIT_SPEC	=  0, 0.500mm, 0.5, 0.000000
*SLIT_SPEC	=  1, 0.500mm, 0.5, 0.000000
*SLIT_SPEC	=  2, 0.500mm, 0.5, 0.000000
*KV		=  45
*MA		=  200
*LOW		=  0.000000
*HIGH		=  0.000000
*CTEMPER	=  0, 0.000000
*CTEMPER	=  1, 0.000000
*CTEMPER	=  2, 0.000000
*PAREX		=  0, 0.000000
*PAREX		=  1, 0.000000
*PAREX		=  2, 0.000000
*PAREX		=  3, 0.000000
*PAREX		=  4, 0.000000
*PAREX		=  5, 0.000000
*PAREX		=  6, 0.000000
*PAREX		=  7, 0.000000
*PAREX		=  8, 0.000000
*PAREX		=  9, 0.000000
*PAREX		=  10, 0.000000
*PAREX		=  11, 0.000000
*PAREX		=  12, 0.000000
*PAREX		=  13, 0.000000
*PAREX		=  14, 0.000000
*PAREX		=  15, 0.000000
*FULL_SCALE	=  168104
*INDEX		=  0, 0, 0
*COUNT		=  1501
4.98898, 4.99806, 5.99148, 3.97852
5.03724, 3.98783, 10.2473, 5.00495
5.94181, 4.1265, 1.97234, 4.99163
2.01248, 6.99529, 2.98143, 5.92716
11.9015, 11.9804, 3.03441, 6.96007
9.96489, 4.9471, 6.27448, 12.001
6.9265, 4.94665, 6.00086, 4.9524
6.98717, 8.83729, 4.95703, 4.93947
7.92885, 8.91835, 8.03274, 7.05032
2.9865, 4.28711, 8.96749, 8.92948
10.9818, 7.00812, 4.01741, 5.94178
4.01368, 9.004, 7.95341, 4.00139
6.95504, 8.92052, 11.9863, 5.01154
7.94278, 8.93846, 9.08284, 8.99193
2.94966, 7.97433, 10.0611, 3.98524
8.02011, 7.94209, 5.96117, 8.93886
5.94057, 10.0133, 3.95989, 9.94311
5.96514, 7.97669, 7.94928, 12.9403
10.0257, 8.99499, 6.00748, 7.927
5.00381, 12.0381, 11.8607, 8.95471
5.0164, 10.9645, 10.9519, 9.9172
10.9594, 7.96807, 12.0479, 14.9057
11.8831, 7.98933, 18.842, 7.972
12.9597, 13.2724, 7.92494, 3.01075
10.8937, 16.904, 18.8848, 10.9615
10.8716, 14.8535, 14.0249, 8.06556
13.8781, 16.0156, 22.8683, 19.0203
15.8942, 17.8744, 18.9791, 23.8646
39.7812, 48.8873, 54.805, 24.9173
17.9305, 21.9222, 25.8754, 19.906
18.9097, 24.9221, 26.8166, 26.7405
27.68, 23.8546, 33.926, 42.7872
35.9415, 34.8805, 45.7648, 39.905
75.7339, 84.7372, 81.803, 91.6659
129.615, 147.508, 115.506, 174.435
214.695, 305.916, 812.603, 3233.45
5843.79, 6733.78, 3037.84, 1000.84
281.542, 171.421, 161.386, 152.797
166.05, 133.305, 142.371, 200.275
375.748, 1339.31, 2306.3, 937.924
573.281, 1827.23, 6100.13, 4871.14
1770.19, 1061.61, 830.872, 1010.58
1318.04, 968.831, 1005.67, 1312.28
502.042, 344.849, 631.287, 632.847
520.855, 164.396, 183.847, 238.045
626.474, 1881.31, 1386.36, 615.023
369.281, 251.952, 333.792, 545.573
367.246, 289.869, 233.154, 254.758
396.338, 547.552, 1193.38, 1807.42
992.041, 791.822, 1056.77, 1267.69
946.965, 1368.38, 1527.9, 1008.85
732.233, 730.264, 968.905, 1679.43
2664.75, 2317.14, 2711.01, 3233.7
3818.46, 6453.23, 8603.71, 10853.5
12263.6, 8699.95, 5190.66, 3923.92
4104.26, 5224.49, 12845.5, 11860.1
6100.67, 4839.56, 15090.1, 13107.5
5578.95, 2595.23, 3064.66, 3634.99
7459.23, 8572.8, 4463.77, 3378.09
5687.78, 8580.23, 3737.55, 2122.29
1186.56, 862.437, 1205.19, 2174.79
1422.76, 1600.01, 2207.53, 2899.15
6070.76, 5980.28, 4030.91, 2008.52
1808.4, 3707.9, 8786.07, 10734.2
6210.55, 2913.35, 2712.92, 3516.79
4128.15, 2640.47, 1753.42, 1684.31
2969.49, 2747.64, 2284.54, 952.219
621.237, 827.608, 2793.44, 10628.8
5073.67, 1124.7, 722.063, 1305.77
4221.77, 3058.78, 1173.19, 728.771
2121.59, 4746.1, 1618.35, 746.636
1873.69, 4324.53, 2223.1, 468.206
348.703, 595.08, 648.065, 475.509
166.426, 190.07, 182.597, 113.645
113.615, 100.613, 78.6318, 70.5485
87.7693, 100.813, 81.5341, 67.8646
62.8821, 60.7694, 66.8449, 55.7472
79.8427, 73.8688, 59.8978, 78.7207
57.7248, 56.8245, 57.8007, 68.6883
67.7505, 69.8489, 97.7937, 127.426
173.042, 288.967, 151.319, 98.5877
95.6731, 112.797, 109.786, 156.943
389.569, 1578.96, 4538.8, 3919.47
1268.72, 385.233, 229.839, 236.423
718.048, 3344.58, 2837.78, 717.356
434.559, 1923.37, 3874.5, 1636.16
1485.68, 2543.01, 4950.57, 2983
592.107, 372.717, 402.856, 2185.73
2543.59, 536.609, 373.134, 543.13
1231.32, 6169.24, 15500.6, 3998.51
891.781, 1036.4, 1854.43, 3724.37
13087.1, 24293, 14966.3, 3019.66
981.36, 594.077, 816.446, 799.446
413.667, 532.092, 388.295, 263.304
366.526, 576.835, 571.777, 497.951
444.727, 320.957, 285.105, 291.763
267.64, 360.513, 509.242, 784.978
1340.91, 834.962, 238.624, 180.074
262.08, 343.599, 666.098, 1848.12
3637.07, 4038.3, 2287.73, 1630.13
1542.26, 1428.26, 1388.42, 2195.31
4750.97, 12939.2, 18378.6, 15949.9
18172.7, 9811.99, 2049.24, 1500.3
1679.08, 1746.54, 1923.22, 1908.76
1932.39, 1568.61, 1948.85, 3911.44
7702.56, 8115.03, 12527.7, 20888
19180.3, 7299.71, 3288.56, 2011.18
1698.48, 1690.3, 2361.09, 6130.1
4415.97, 3531.5, 4623.33, 3526.24
2444.47, 6239.26, 8208.49, 4201.32
3549.14, 5751.15, 11435, 14510.3
9681.94, 7491.71, 9355.87, 13443.7
6953.75, 8130.16, 5761.04, 2806.6
2673.11, 3795.63, 8216.87, 8794.66
3042.32, 2740.07, 3545.86, 9463.13
15990.5, 8272.59, 5548.37, 6760.1
9573.62, 10123.6, 4642.12, 7803.87
8168.07, 4291.05, 3011.1, 6021.28
13151.2, 15680.9, 25272, 26956.8
19044.3, 10071.5, 8104.66, 8214.45
6910.01, 5463.58, 6761.92, 6614.48
4372.42, 3709.43, 5229.01, 15262.1
27054.5, 16917, 15359.6, 17426.5
18971.4, 13830.3, 8376.28, 7902.85
18549.7, 27500.7, 9921.18, 4690.1
6172.05, 8991.9, 10034.7, 9059.85
7986.1, 8221.26, 6428.98, 5392.24
5430.62, 4247.87, 5632.06, 7307.44
5979.29, 5221.88, 4591.04, 6949.5
7600.95, 8603.34, 10826.2, 4252.47
2822.29, 3557.73, 3651.79, 3772.35
4646.27, 3737.26, 4268.96, 6702.47
16697.5, 18288.4, 15462.6, 14522
19589.7, 15190, 7941.21, 8496.15
10312.9, 16755.3, 12091.6, 11107
8869.05, 13163.7, 18202.9, 14365.8
5440.32, 2692.66, 2640.05, 3376.49
5015.58, 7557.46, 9532.09, 8719.28
6007.45, 5293.78, 8296.23, 8723.34
6389.93, 5013.95, 6108.68, 6033.5
6688.03, 5675, 3543.59, 1940.54
1835.47, 2994.19, 5456.01, 4444.39
2446.4, 2168.46, 4484.56, 12837.9
13609.4, 22514.3, 16333.4, 3796.17
2219.66, 3425.19, 4994.38, 6755.18
8911.29, 6879.82, 7617.03, 12295.8
14069.1, 11092, 10921.2, 7889.67
3635.11, 1987.68, 2008.01, 4155.08
4818.8, 2945.43, 3372.83, 3663.97
2367.54, 1622.9, 1536.37, 960.651
520.992, 365.254, 411.411, 702.495
1606.2, 1803.55, 1237, 813.186
834.485, 834.188, 1532.39, 2987.44
4796.58, 8425.25, 7427.53, 6153.71
4650.23, 3756.75, 2235.46, 1081.34
590.001, 471.434, 424.184, 342.694
346.226, 334.188, 422.661, 750.493
1644.61, 2119.81, 1379.92, 588.777
404.917, 237.263, 180.846, 246.098
504.671, 1378.15, 2323.94, 1614.84
879.212, 808.337, 2217.86, 6849.79
3286.97, 538.758, 322.201, 277.217
259.355, 267.846, 367.928, 398.047
634.198, 649.492, 418.822, 288.03
234.729, 170.522, 134.354, 209.735
270.64, 368.717, 468.5, 439.451
364.321, 212.897, 225.346, 309.157
727.261, 704.339, 1208.09, 2050.55
1631.04, 420.886, 248.724, 198.067
185.407, 169.34, 163.752, 127.412
161.207, 504.429, 1201.11, 863.583
428.113, 168.99, 173.795, 171.125
197.696, 229.447, 254.084, 424.842
298.775, 151.72, 85.8167, 108.212
124.715, 129.551, 68.9072, 44.9233
101.576, 201.438, 255.435, 262.246
180.06, 152.777, 124.849, 128.91
241.181, 330.384, 624.983, 697.872
526.735, 521.234, 432.415, 279.366
60.731, 47.7346, 39.8667, 31.8895
24.9176, 19.9704, 19.8728, 16.0127
24.8942, 23.8351, 25.8752, 14.995
18.0824, 14.9116, 9.95341, 17.9223
16.9668, 8.97803, 26.9016, 10.9642
14.9202, 19.9522, 14.0091, 15.0078
11.0385, 13.0872, 12.0448, 10.1366
15.981, 13.9412, 11.0325, 17.9087
12.008, 7.94428, 16.9295, 13.1174
14.104, 19.019, 11.007, 16.8836
9.0043, 10.948, 8.1984, 12.3806
19.8852, 10.9458, 11.1154, 11.0363
8.96822, 11.9103, 18.8261, 9.99452
16.9349, 9.06869, 9.00922, 9.95805
14.2107, 14.0648, 13.9399, 6.99337
9.95011, 13.1312, 10.9998, 6.92256
6.27159, 6.12998, 9.83701, 9.93247
7.96102, 6.98279, 5.2647, 7.97019
5.9622, 11.9303, 13.0088, 12.667
11.1269, 8.03434, 6.92968, 12.0267
10.9946, 9.95045, 6.13067, 8.93606
5.95953, 8.00682, 7.93038, 14.2091
8.96069, 7.92496, 6.10741, 4.96119
14.9013, 10.0193, 6.9384, 9.97728
10.0359, 5.00947, 5.98812, 7.95971
4.98439, 15.9683, 8.92237, 16.3231
10.0451, 8.272, 5.98969, 6.15572
6.95552, 9.03933, 9.98502, 4.91986
6.95688, 7.92636, 7.94875, 4.01413
5.95895, 6.01248, 8.9826, 6.95379
7.99574, 6.03164, 6.01406, 11.9955
8.97444, 4.95088, 7.9826, 5.97247
7.90526, 2.00537, 6.94876, 10.9111
11.9349, 3.97777, 3.99039, 6.9283
5.97516, 9.02491, 11.9362, 8.96532
8.91176, 7.96868, 1.98813, 6.03081
7.03814, 11.9814, 10.8994, 7.87326
2.95672, 4.92204, 13.0662, 4.96427
9.00633, 7.98629, 4.00962, 6.92394
4.94749, 4.96604, 9.01629, 8.02251
3.15721, 2.96066, 6.96198, 7.14975
3.93006, 7.94805, 3.00584, 8.91387
4.93262, 8.96066, 3.02257, 6.98349
4.97474, 6.97113, 7.98019, 9.90535
3.98609, 5.94632, 7.98643, 3.98231
3.00591, 9.9763, 3.99476, 8.02893
8.01855, 2.96655, 4.9673, 6.01213
7.9669, 8.25148, 4.94564, 7.97352
4.88534, 6.93602, 5.98624, 3.96781
2.97603, 6.00475, 3.00022, 3.00333
2.97266, 4.01866, 4.99234, 3.9567
9.96827, 4.03872, 0.979404, 2.97513
3.96446, 3.15731, 5.97294, 7.00236
0.000000, 4.98751, 11.2591, 4.96114
4.99405, 5.01183, 8.02181, 8.04602
4.0162, 3.03323, 4.02272, 3.98278
9.96368, 6.01959, 4.93403, 1.98462
4.94998, 1.97726, 8.01261, 2.03417
9.03689, 4.99228, 6.90867, 7.98241
4.89899, 4.92583, 5.96921, 3.98492
5.95296, 3.97708, 5.96603, 4.94046
2.98097, 3.00145, 7.94865, 5.91523
6.94466, 4.8891, 1.97573, 7.10185
2.98107, 2.95128, 1.97428, 3.95965
2.97918, 8.02463, 6.93528, 3.98347
0.976707, 7.99538, 3.93303, 8.96887
2.968, 4.9594, 3.97122, 3.99976
5.02495, 4.99504, 5.95631, 6.96318
7.12069, 0.000000, 3.97343, 4.96568
3.94155, 2.96128, 5.9417, 3.96801
5.95846, 2.91077, 4.02394, 3.00337
4.96047, 2.96796, 3.94713, 8.99485
6.99544, 3.99266, 4.99532, 2.99906
5.01032, 3.98662, 2.96987, 3.025
6.28181, 6.99352, 5.96391, 1.01151
3.94367, 2.99688, 1.02859, 5.96
5.11677, 4.93887, 8.94218, 2.03475
5.97968, 2.95242, 2.99759, 1.00139
5.02099, 5.93276, 3.97535, 2.99162
1.02859, 3.94154, 2.00499, 3.98398
5.98031, 5.02557, 4.02834, 3.0062
2.00062, 4.98217, 3.97125, 4.99333
5.00631, 6.98251, 6.12921, 4.92585
3.96028, 4.93618, 5.01999, 3.99532
3.98853, 3.0012, 1.96415, 0.983565
4.96389, 1.94921, 7.04139, 0.000000
4.9434, 0.000000, 2.00019, 4.973
1.9773, 3.96234, 1.96107, 2.99678
0.000000, 1.98421, 4.00234, 3.92999
3.93681, 2.00323, 1.99163, 5.97211
2.0411, 7.00192, 2.97653, 0.984783
4.97461, 5.9312, 2.01519, 2.95132
2.98491, 3.98148, 6.99994, 1.99897
3.92701, 3.93523, 5.94864, 4.0321
1.99732, 3.97536, 1.97393, 1.97772
3.97507, 1.02243, 5.99056, 1.96178
3.96251, 8.00867, 3.99562, 2.97779
0.000000, 4.97869, 3.99819, 1.97842
1.98742, 3.99627, 3.93551, 1.99929
1.9948, 4.00122, 5.93232, 4.29317
5.9952, 3.94394, 4.92306, 2.12718
2.98197, 1.97134, 3.96665, 2.98057
3.95893, 4.95424, 3.9963, 0.991595
3.93295, 5.89611, 4.01091, 4.00698
0.995072, 5.00985, 4.98177, 3.97724
6.03284, 5.0082, 4.92254, 4.94952
0.000000, 3.93375, 5.12475, 6.99777
2.95261, 4.95071, 2.01386, 2.01477
3.0203, 2.99759, 4.00034, 2.95923
1.98995, 5.0151, 1.99573, 3.96665
1.99266, 1.9983, 3.02301, 2.98493
7.05155, 5.02752, 3.9659, 3.95522
4.99772, 0.99741, 5.96197, 2.00274
2.97767, 5.90013, 5.33141, 1.98292
2.96416, 2.98381, 4.91854, 6.03825
0.992419, 3.00155, 0.000000, 1.01009
4.96614, 1.01009, 2.96316, 4.99048
1.96974, 2.96051, 3.96714, 1.01763
0.98536, 3.03152, 4.99869, 1.99049
4.95674, 0.000000, 1.98741, 7.94133
5.9954, 0.000000, 2.99529, 1.99427
1.00596, 3.97838, 2.98895, 4.99088
2.97087, 1.99677, 1.99529, 2.99121
3.00996, 3.0067, 5.91396, 3.95423
2.97001, 1.98703, 0.000000, 0.994505
3.98281, 3.00044, 0.975458, 3.00237
5.00608, 6.06299, 0.985255, 1.00393
1.9984, 1.99123, 1.96042, 1.98933
2.02747, 1.98182, 1.97132, 1.97199
2.0287, 2.00484, 5.9523, 2.98828
1.98275, 1.99767, 2.99304, 0.000000
0.995516, 1.98857, 2.94994, 5.98822
1.9517, 2.9592, 2.00344, 0.987078
2.96143, 3.97033, 6.95213, 3.92744
2.03495, 2.31487, 1.01251, 2.958
1.96477, 4.00628, 4.02045, 3.03368
1.00377, 2.96447, 2.00061, 3.97492
3.11855, 0.984871, 2.97011, 3.97268
2.00608, 3.01127, 1.0152, 2.94774
0.991084, 2.95286, 3.95682, 3.95102
1.9628, 3.00078, 2.99856, 4.02147
2.95067, 1.99113, 3.00493, 3.98427
1.00377, 2.96745, 2.99463, 0.982386
4.95233, 0.985607, 6.9111, 0.000000
1.97208, 0.979151, 3.0139, 1.97109
2.973, 2.97973, 0.991819, 3.95772
0.98946, 2.99426, 0.970999, 1.99936
0.988274, 2.98657, 5.9498, 1.01336
1.1415, 0.980372, 0.971517, 0.982243
3.95294, 5.01187, 1.99415, 2.99181
1.99815, 6.90002, 6.93642, 2.00288
0.991909, 2.94415, 3.00217, 0.000000
2.0169, 7.30248, 2.01483, 2.93829
1.95611, 1.00614, 2.01726, 0.000000
0.000000, 4.95717, 3.9669, 1.97709
2.0323, 4.9215, 0.000000, 0.995167
4.92996, 2.00666, 1.98671, 2.00459
1.93692, 2.99105, 4.91604, 3.97476
1.98269, 2.00275, 3.00776, 0.990253
1.97368, 1.99202, 3.0105, 1.97413
2.96329, 1.96988, 2.98236, 2.98064
0.000000, 0.996603, 0.995864, 1.0081
2.00348, 0.000000, 1.99189, 1.96817
0.996544, 1.02077, 0.995864, 2.02403
4.00833, 3.94404, 1.9468, 1.98145
4.97241, 2.98852, 1.9856, 2.94819
2.03873, 1.97958, 0.000000, 0.000000
4.95962, 2.01967, 1.00024, 3.97686
1.00005, 0.978305, 3.99466, 0.000000
0.000000, 1.0085, 1.01151, 2.00465
2.94857, 1.98468, 0.989949, 0.993375
3.00624, 1.00139, 4.01546, 3.98446
0.993787, 1.97905, 0.000000, 1.98857
2.1421, 1.96589, 4.00732, 5.00408
5.00292, 0.997087, 0.000000, 3.95623
2.01731, 1.99679, 1.98012, 4.00319
0.98982, 1.99326, 1.98053, 0.000000
0.994199, 0.984658, 2.00176, 1.99996
2.99531, 2.992, 3.99368, 2.93283
0.98842, 1.0078, 0.000000, 2.97147
4.13725, 3.00418, 2.01969, 4.98565
1.95457, 2.99011, 1.95555, 1.95708
3.01587, 5.98971, 1.96941, 0.000000
0.000000, 1.98412, 1.96947, 1.98586
0.000000, 0.981748, 0.000000, 1.01455
4.03486, 0.000000, 2.04375, 3.00525
0.952998, 3.95872, 2.96745, 3.95453
12.995, 8.95794, 15.86, 24.7444
34.6795, 20.918, 15.8339, 13.9162
8.96598, 9.96845, 3.95483, 4.99479
1.00162, 5.91618, 2.96492, 3.958
0.997826, 4.99097, 1.00436, 1.98422
1.00278, 1.9924, 1.99573, 2.00979
2.01458, 1.99842, 1.99539, 0.998873
0.958476, 2.00689, 0.995167, 1.01753
3.02602, 0.988274, 1.98749, 2.97465
5.03535
*END

*EOF
