*TYPE		=  Raw
*CLASS		=  ASCII CLASS
*SAMPLE		=  A56
*COMMENT	=   
*FNAME		=  A56_2thetaomega_2θ_ω.asc
*DATE		=  13-Jun-19 17:02

*GROUP_COUNT	=  1
*GONIO		=  SmartLab(In-plane), 0.000000
*ATTACHMENT	=  χφZクレードル
*ASC		=  0, 0, 0.000000, 0.000000
*I_MONOCHRO	=  Ge(220)x2, 0.000000
*FILTER		=  None
*C_MONOCHRO	=  No_unit, 0.000000
*SLIT_NAME	=  0, 入射スリット
*SLIT_NAME	=  1, 受光スリット1
*SLIT_NAME	=  2, 受光スリット2
*COUNTER	=  HyPix 3000(H), 0
*POS_FORMAT	=  0
*SCAN_AXIS	=  2Theta/Omega
*MEAS_MODE	=  Continuous Scanning
*TARGET		=  29
*XRAY_CHAR	=  K-ALPHA1
*WAVE_LENGTH1	=  1.54059
*WAVE_LENGTH2	=  1.54441
*THICKNESS	=  0, 0.000000
*MU		=  0, 0.000000
*SCAN_MODE	=  2Theta/Omega
*SPEED_DIM	=  sec./step
*XUNIT		=  deg.
*YUNIT		=  counts
*SCALE_MODE	=  1
*REP_COUNT	=  0
*SE_COUNT	=  0
*STD_MATERIAL	=  Unknown, Unknown, 0.000000, 0.000000, 0.000000, 0.000000, 0.000000, 0.000000
*LATT_CONS	=  0, Unknown, Unknown, 0.000000, 0.000000, 0.000000, 0.000000, 0.000000, 0.000000
*SEC_COUNT	=  1
*TSPEC_SIZE	=  0
*EXTRA_SIZE	=  0
*MEMO		=   

*BEGIN
*GROUP		=  0
*START		=  20
*STOP		=  90
*STEP		=  0.01
*OFFSET		=  0.000000
*SPEED		=  0.196312
*SLIT_SPEC	=  0, 0.500mm, 0.5, 0.000000
*SLIT_SPEC	=  1, 0.500mm, 0.5, 0.000000
*SLIT_SPEC	=  2, 0.500mm, 0.5, 0.000000
*KV		=  45
*MA		=  200
*LOW		=  0.000000
*HIGH		=  0.000000
*CTEMPER	=  0, 0.000000
*CTEMPER	=  1, 0.000000
*CTEMPER	=  2, 0.000000
*PAREX		=  0, 0.000000
*PAREX		=  1, 0.000000
*PAREX		=  2, 0.000000
*PAREX		=  3, 0.000000
*PAREX		=  4, 0.000000
*PAREX		=  5, 0.000000
*PAREX		=  6, 0.000000
*PAREX		=  7, 0.000000
*PAREX		=  8, 0.000000
*PAREX		=  9, 0.000000
*PAREX		=  10, 0.000000
*PAREX		=  11, 0.000000
*PAREX		=  12, 0.000000
*PAREX		=  13, 0.000000
*PAREX		=  14, 0.000000
*PAREX		=  15, 0.000000
*FULL_SCALE	=  177347
*INDEX		=  0, 0, 0
*COUNT		=  7001
0.967456, 0.000000, 0.992221, 0.97201
0.000000, 3.95555, 0.988588, 0.000000
2.00757, 0.000000, 2.9706, 2.99934
0.970999, 3.97114, 1.01373, 0.970999
1.97899, 0.982243, 1.02767, 1.00583
0.992963, 0.98902, 1.97196, 3.97705
3.96659, 1.01715, 2.00298, 1.99756
0.985255, 0.000000, 0.953149, 0.000000
2.9604, 0.988968, 1.00085, 1.9685
0.994332, 1.01098, 0.992145, 0.000000
1.98957, 2.96799, 0.000000, 1.00085
0.984318, 1.00455, 1.00716, 1.00144
1.97552, 2.00255, 0.000000, 0.000000
0.996947, 0.988021, 0.976638, 0.985205
0.000000, 0.000000, 1.97174, 0.000000
0.000000, 1.99594, 6.02708, 0.992221
1.98836, 0.995278, 0.998123, 1.995
1.01777, 0.9976, 0.985518, 2.90746
2.00059, 1.97747, 0.000000, 1.00531
2.99157, 0.000000, 3.97033, 0.999617
1.98993, 2.0053, 0.000000, 2.02107
2.99183, 0.000000, 0.000000, 3.01651
0.988968, 0.000000, 0.984056, 3.95245
0.998445, 2.00582, 1.99184, 1.98607
0.000000, 1.98231, 1.97826, 0.000000
2.99806, 0.997664, 0.978133, 3.97072
0.000000, 0.978133, 3.01467, 2.93757
0.000000, 0.000000, 1.99785, 2.01011
0.000000, 0.000000, 3.95875, 1.97382
2.98347, 4.00783, 3.96158, 1.99063
5.00575, 0.983507, 1.98427, 0.986464
1.00097, 5.95019, 2.99123, 1.00658
1.02077, 3.00596, 4.97025, 0.983507
1.98738, 0.000000, 0.980312, 0.990101
0.000000, 0.980006, 4.97806, 3.91384
0.000000, 1.01147, 0.998964, 3.99161
0.998445, 1.02508, 0.000000, 1.99601
1.00583, 0.997664, 1.99198, 2.9913
2.05028, 0.995809, 0.992221, 1.98888
3.99787, 1.94934, 1.97943, 2.94903
2.00914, 4.95522, 1.002, 1.97766
1.99615, 0.995433, 0.000000, 0.000000
0.999617, 1.98787, 0.000000, 2.0048
0.000000, 1.14147, 2.99155, 0.998232
1.94416, 0.969093, 2.94208, 1.99609
0.000000, 2.02485, 0.000000, 0.000000
1.99667, 0.979404, 3.0035, 1.00896
0.000000, 1.95942, 0.982887, 0.000000
2.98965, 0.000000, 0.000000, 1.99462
1.97967, 0.997859, 0.000000, 0.000000
0.000000, 2.99075, 3.01418, 3.93662
1.98401, 0.992416, 0.952998, 0.000000
3.023, 3.99333, 3.95062, 0.000000
1.00146, 1.0092, 0.000000, 4.02302
3.97585, 2.00912, 1.974, 0.000000
0.997708, 0.000000, 3.02366, 2.99031
0.000000, 2.00541, 1.97539, 3.02081
4.96883, 2.01122, 0.000000, 0.000000
0.000000, 1.01147, 0.000000, 1.98214
1.98802, 1.98895, 2.99944, 1.00097
0.989402, 0.000000, 1.98109, 2.95441
0.996947, 1.97178, 2.00014, 2.01224
1.00408, 0.000000, 0.000000, 0.000000
4.01704, 1.00377, 0.000000, 0.98902
2.00615, 2.00635, 1.00712, 2.94447
2.0165, 0.000000, 0.986472, 0.978305
0.984347, 1.00216, 0.999617, 3.99916
2.97695, 0.980384, 0.999084, 0.000000
3.98614, 1.97558, 1.97304, 3.02013
1.01988, 2.00591, 0.988732, 0.992145
0.987011, 1.9986, 0.979388, 0.000000
0.985518, 1.98376, 4.34345, 0.995167
1.9814, 0.000000, 4.02475, 0.99971
0.000000, 0.988588, 3.01523, 0.000000
0.000000, 0.987507, 0.978909, 2.02443
2.0055, 1.98635, 1.98334, 0.971069
0.000000, 0.000000, 1.98908, 2.00083
2.00848, 3.00132, 0.000000, 2.01359
2.95005, 0.000000, 0.98982, 1.9833
2.01782, 0.000000, 0.998101, 1.99362
0.000000, 2.96984, 0.989296, 1.00914
0.999481, 2.98517, 3.95118, 0.986062
1.99555, 0.000000, 0.000000, 0.000000
0.000000, 0.987034, 0.000000, 0.967456
0.999808, 1.9722, 0.975574, 0.000000
2.99657, 0.000000, 0.000000, 0.993811
1.98618, 8.02756, 1.95485, 0.998545
1.99246, 1.97374, 2.95129, 1.9851
0.000000, 1.00287, 2.99055, 1.97601
0.000000, 0.987345, 0.970326, 1.99421
2.99903, 4.95714, 0.960998, 1.97311
1.01936, 1.98347, 1.01689, 0.996436
1.99143, 1.97685, 0.96094, 3.94428
0.999718, 0.988162, 1.95762, 1.0199
0.967456, 3.03478, 1.97056, 2.01209
0.998752, 1.00007, 0.000000, 0.000000
1.00287, 1.00486, 2.98839, 1.00259
2.95562, 0.000000, 0.986583, 3.01663
0.000000, 0.000000, 0.000000, 0.983988
1.01215, 0.000000, 0.981861, 2.98118
2.96887, 0.000000, 0.000000, 0.991942
0.993865, 2.01991, 0.000000, 0.975574
0.000000, 1.01865, 0.967456, 3.97994
2.96367, 0.000000, 2.01335, 0.000000
1.03092, 1.01016, 0.991217, 0.973592
0.000000, 1.02767, 2.98256, 0.000000
1.03269, 2.03529, 1.94889, 1.96962
1.00488, 2.01129, 1.00187, 0.000000
3.0099, 2.00872, 0.985708, 0.000000
1.00162, 0.982887, 2.99108, 0.000000
0.998901, 2.99854, 4.99273, 1.97524
3.04538, 2.00812, 4.00161, 1.98807
0.984664, 0.975458, 0.992874, 1.97555
1.9696, 0.982552, 0.996436, 4.95538
1.99386, 0.000000, 1.97838, 1.98368
0.984056, 1.00866, 3.01578, 1.01228
1.00531, 1.96299, 0.000000, 1.9843
3.97688, 2.00276, 3.01352, 2.96883
0.000000, 0.986583, 0.999457, 0.989879
0.000000, 0.953149, 2.99016, 1.00395
0.991217, 2.01777, 3.02883, 0.973592
3.00431, 2.0091, 2.97681, 1.93191
1.97643, 1.00259, 0.000000, 2.98797
2.00985, 0.987507, 0.997874, 1.98036
3.98151, 3.92265, 0.000000, 0.000000
0.995864, 4.95414, 0.993865, 0.000000
0.000000, 0.000000, 1.99431, 2.006
1.98568, 2.98254, 0.995827, 0.000000
2.04144, 2.97303, 1.00831, 0.000000
0.994368, 3.97704, 0.988274, 2.99061
1.00246, 1.96854, 0.000000, 1.00084
5.23348, 1.99165, 1.97424, 2.03652
1.96738, 0.000000, 0.994781, 2.96505
3.01341, 0.000000, 1.98199, 1.96324
1.97566, 0.000000, 1.98713, 3.96582
0.000000, 0.000000, 0.978338, 4.98321
1.00015, 1.99661, 1.9794, 0.996176
0.99926, 2.97848, 1.98402, 1.95984
0.952998, 0.000000, 2.00836, 4.00567
4.97898, 1.00866, 2.96643, 0.000000
0.977428, 3.93259, 3.99706, 0.952998
2.0002, 0.983873, 0.98982, 0.978909
0.99926, 1.02077, 0.000000, 1.0166
2.97573, 0.000000, 2.94247, 0.000000
2.02837, 2.01678, 1.01015, 0.000000
0.994781, 2.02697, 0.979388, 0.000000
1.99822, 1.00099, 1.95053, 1.95426
0.958476, 3.00632, 1.0027, 3.01073
1.01098, 0.000000, 0.996763, 0.968198
1.00538, 1.99936, 1.97467, 1.99691
0.997802, 0.000000, 2.99181, 1.00097
0.993303, 2.00508, 0.996003, 0.993865
1.01936, 0.990698, 1.00287, 0.996544
0.000000, 0.996436, 2.97704, 3.01657
3.95437, 0.997965, 1.96379, 0.987511
1.98748, 0.986178, 3.01716, 2.03007
0.989299, 0.986464, 1.00099, 0.998445
0.995864, 3.02144, 2.00916, 2.98872
0.000000, 0.000000, 0.000000, 0.000000
0.000000, 3.03369, 2.96989, 3.03294
1.98231, 1.98188, 0.993865, 0.978338
3.96959, 0.000000, 5.96301, 3.99999
2.95663, 0.000000, 0.989299, 1.98057
1.00377, 3.99117, 1.01364, 0.986583
3.0061, 0.000000, 2.98502, 1.94033
5.97075, 1.00776, 4.00444, 0.000000
0.000000, 0.000000, 3.97713, 1.0002
1.97697, 0.000000, 1.9961, 0.000000
0.988021, 3.95792, 0.000000, 0.000000
1.03032, 0.994706, 0.000000, 1.00076
1.98596, 2.03806, 0.999688, 2.02028
1.02498, 0.999001, 3.97543, 0.991968
0.000000, 0.988162, 1.98613, 0.991413
0.971559, 2.00065, 0.983988, 4.01312
1.0032, 4.00686, 0.991942, 0.968992
3.97903, 0.997802, 1.00886, 0.000000
0.992963, 0.000000, 3.00231, 2.0193
1.00499, 1.9983, 0.978662, 0.000000
1.99482, 0.000000, 0.976707, 1.00187
3.98936, 0.984412, 2.95627, 0.979388
1.00917, 0.000000, 1.9679, 3.0074
0.998123, 1.98852, 0.983988, 1.9392
0.000000, 0.993788, 4.99864, 1.00199
0.973592, 1.99909, 0.000000, 1.97454
1.98462, 0.000000, 3.91427, 3.02152
4.99103, 1.97799, 1.02767, 0.983888
3.12627, 3.00987, 0.000000, 0.000000
3.00459, 3.99037, 0.984318, 1.96547
1.94883, 0.988968, 0.998327, 0.97169
0.000000, 1.00185, 1.01345, 3.95659
1.02936, 1.96885, 1.01349, 2.99193
0.000000, 1.95491, 1.97389, 0.999481
0.997094, 0.984347, 0.988126, 0.992365
3.01728, 1.00377, 0.998226, 2.95844
2.97849, 0.000000, 3.00021, 0.986126
3.98287, 0.982377, 0.99534, 2.96115
0.986181, 0.992416, 1.97636, 3.89263
0.970999, 1.98963, 3.98012, 4.99102
4.99782, 3.04547, 0.000000, 0.991217
3.98433, 0.970999, 2.00145, 1.98625
0.994888, 0.980006, 1.00712, 2.96566
4.0044, 1.98445, 1.95366, 0.986472
0.000000, 0.990902, 0.000000, 0.000000
2.01149, 0.990101, 1.0085, 2.96402
0.982224, 1.99655, 0.987034, 3.98442
1.97956, 1.97008, 2.97017, 0.99534
3.93565, 3.94139, 3.01959, 2.00311
1.98121, 2.0019, 1.98404, 0.98199
2.96217, 3.01845, 1.99619, 2.99932
0.987034, 2.99835, 0.000000, 0.989224
1.98022, 0.995634, 1.00193, 0.995587
2.98877, 0.000000, 2.9711, 1.00162
1.99788, 1.97711, 2.92383, 1.0085
2.98584, 3.9673, 0.000000, 3.03979
1.97754, 1.94924, 2.01782, 2.96872
3.01282, 1.97452, 2.94392, 2.99571
1.97617, 1.9927, 6.16879, 0.000000
0.996231, 2.98803, 3.01919, 1.01709
1.98102, 1.99178, 1.00488, 1.99374
0.000000, 4.9569, 1.97348, 1.99418
5.93615, 2.99036, 0.000000, 3.00364
0.968573, 2.97666, 1.01098, 3.0179
1.01083, 3.97725, 4.01751, 1.99252
0.997874, 3.97677, 1.99306, 4.9507
2.0052, 3.93718, 2.0221, 2.96804
1.99817, 1.943, 8.05499, 0.993375
0.997826, 3.99629, 0.990515, 2.9846
5.01569, 4.00786, 5.00776, 0.000000
4.91091, 1.99061, 1.97546, 4.01018
5.96592, 0.991385, 2.00874, 2.96796
3.01773, 1.96935, 1.01708, 0.981355
3.99041, 4.00682, 3.95054, 3.96831
7.31625, 0.000000, 7.98827, 0.99813
3.02163, 2.95923, 5.98417, 0.998308
0.000000, 0.995066, 0.000000, 1.99685
1.02824, 4.01231, 1.00259, 1.98017
1.02261, 2.97539, 2.971, 1.98587
2.02912, 2.95101, 1.98061, 1.99093
3.14678, 0.962919, 2.94678, 3.96082
3.98988, 0.000000, 5.91524, 0.996403
1.96036, 3.00594, 4.90307, 2.99927
1.99037, 2.99616, 2.99197, 0.98946
4.98163, 3.99259, 2.97315, 6.01851
4.97888, 0.989299, 4.01342, 5.94963
5.01866, 4.00154, 3.00208, 2.98732
2.96872, 4.00561, 0.000000, 1.99737
2.9641, 4.99268, 0.99662, 3.96892
7.89281, 2.0042, 1.02107, 2.97375
2.98242, 0.000000, 9.04422, 3.94171
2.01459, 1.99333, 2.97754, 3.99591
4.00241, 3.97071, 0.000000, 9.07016
0.972546, 0.990595, 0.996231, 2.98763
2.97226, 2.00679, 2.9697, 4.98616
6.96221, 1.98118, 7.30987, 4.95952
3.97084, 6.92989, 10.9869, 4.02119
3.97822, 6.9825, 2.98154, 3.00481
4.01189, 4.9216, 3.97026, 3.98953
2.99332, 4.002, 4.97389, 2.99428
6.03462, 2.01759, 4.94179, 3.95097
5.00881, 3.95873, 2.96258, 7.08898
4.01582, 4.92383, 6.96944, 4.96104
3.02735, 2.99931, 8.99525, 11.9333
6.99941, 5.99488, 4.01761, 7.9815
3.98387, 3.01894, 2.97053, 7.87921
4.9881, 7.94901, 3.9967, 5.02327
9.99482, 3.9692, 7.035, 5.00593
8.9675, 8.95366, 4.9747, 4.01235
7.94085, 6.96078, 4.00624, 8.93992
8.00374, 7.97399, 3.01801, 9.97015
5.0116, 4.968, 5.97211, 9.98232
5.98107, 4.93527, 9.98898, 11.0129
10.0601, 6.90091, 12.0234, 6.91404
5.96645, 6.94993, 10.9768, 9.89782
12.2969, 18.034, 12.9385, 8.98154
13.8669, 17.0533, 16.0613, 10.0191
11.9384, 11.948, 6.91939, 14.9767
12.9496, 7.9496, 9.94278, 9.00978
13.9858, 10.9814, 15.2915, 13.9939
11.9944, 18.0915, 11.9196, 14.9845
14.9592, 12.1342, 14.9336, 19.9107
12.9191, 17.9465, 14.1228, 17.9202
24.2484, 25.0034, 14.7579, 20.117
24.8866, 28.0373, 19.8781, 28.9509
23.9451, 28.9321, 17.8572, 23.9165
24.9407, 19.9469, 16.8973, 35.0093
27.2289, 26.8677, 30.2175, 42.8252
31.4284, 35.942, 32.9235, 35.3641
37.0946, 45.893, 36.8146, 40.7823
45.905, 47.9466, 57.0622, 54.9485
48.2302, 49.99, 60.0025, 70.843
66.8417, 68.751, 66.8092, 92.0352
111.888, 123.783, 188.301, 331.349
783.6, 1912.49, 3156.02, 3809.74
5338.38, 6306.33, 5641.1, 5539.36
6245.44, 11494.5, 22001.8, 24741.7
29012.7, 27233.9, 25343.8, 19217.9
15276.5, 9959.23, 4837.59, 3183.68
3477.68, 3935.64, 3596.49, 2030.86
582.166, 214.186, 142.203, 84.9595
67.2696, 63.9288, 54.0567, 44.9414
42.0201, 36.0395, 38.8266, 35.9607
34.9646, 27.1957, 25.9073, 29.0488
16.8687, 35.1505, 14.8735, 19.8943
22.9696, 15.9198, 20.8857, 16.9418
20.9531, 20.3143, 17.991, 21.9364
20.8029, 17.804, 8.97346, 16.0237
17.96, 13.9474, 12.0241, 15.0113
11.1849, 13.2518, 18.1787, 14.9495
10.1642, 12.9724, 11.9285, 13.0037
9.96889, 11.931, 11.008, 8.94479
11.0007, 4.98307, 9.93781, 13.3091
13.9092, 4.98074, 10.9272, 5.9492
5.98387, 12.2627, 8.97944, 3.99837
7.99377, 8.95087, 12.9886, 5.03323
6.02312, 6.91083, 7.9891, 12.8993
9.9344, 9.20811, 8.9474, 9.88471
10.017, 5.01158, 12.0415, 7.02464
1.02258, 7.95712, 5.98217, 9.96932
8.00342, 9.07441, 7.94826, 5.98756
7.97196, 5.07431, 8.01934, 1.97704
7.96827, 8.91534, 9.9592, 7.02405
6.99293, 15.9168, 5.94807, 9.988
2.96903, 6.00138, 5.02407, 4.94392
5.99026, 1.99528, 4.95944, 7.00606
4.01389, 5.96023, 4.97005, 3.98337
5.00169, 7.00239, 7.92337, 4.00058
11.0636, 11.0829, 8.91323, 3.97661
7.9464, 6.96702, 5.17654, 6.05111
7.93355, 6.92902, 9.99165, 5.9447
3.99199, 9.92634, 4.12688, 4.01872
5.97124, 4.98861, 4.99797, 2.96682
1.98863, 5.00562, 7.04896, 7.32144
2.99932, 0.999182, 6.04549, 0.000000
4.96655, 7.91119, 5.93995, 5.97228
2.01876, 5.95375, 7.93989, 7.97794
4.99927, 4.95428, 4.00462, 3.97885
3.95487, 4.97688, 4.94695, 3.00487
2.98825, 5.93319, 3.02253, 6.93276
2.98031, 10.9851, 3.92076, 3.98283
2.00576, 6.95939, 4.98004, 3.0006
4.00967, 4.98739, 1.98577, 0.000000
2.96528, 6.97733, 3.99391, 2.98891
3.00513, 6.92176, 2.0145, 5.02966
4.01468, 2.9659, 3.0227, 0.987078
4.13787, 3.9943, 3.01804, 3.01501
5.29143, 4.03697, 2.97921, 3.0358
0.000000, 8.00546, 2.95623, 3.97794
0.987034, 6.98295, 1.99986, 3.97605
3.98618, 5.96632, 3.99492, 1.98728
4.04083, 1.95265, 0.993218, 5.02947
3.05218, 5.00562, 0.000000, 1.9899
5.96356, 4.95668, 3.00987, 3.9922
3.00411, 3.93348, 3.00418, 1.94519
3.9993, 4.95363, 4.0161, 2.0204
3.97255, 4.96997, 2.0363, 5.02764
2.96278, 3.00998, 1.97728, 0.990415
2.0003, 3.96073, 4.96026, 3.97292
3.0315, 1.97294, 9.09418, 3.98484
4.04212, 2.96227, 1.97875, 3.01121
7.34918, 3.96231, 2.99987, 4.95435
1.00982, 7.9537, 3.99858, 2.97242
1.98281, 1.00866, 1.9879, 4.00042
6.97393, 1.00831, 4.00021, 0.979394
5.95132, 2.00029, 2.01711, 2.01073
0.000000, 0.989299, 1.9987, 1.98604
1.97971, 3.00906, 4.01612, 3.98505
0.989868, 2.01199, 1.96351, 0.000000
0.000000, 3.96483, 3.96614, 1.99093
2.99815, 1.00401, 0.997814, 3.98414
2.99931, 1.96552, 3.01246, 2.96978
3.94335, 3.00694, 0.000000, 4.0091
0.979394, 0.991858, 2.94981, 2.00797
3.95203, 2.96955, 1.02077, 3.00203
5.96787, 4.99783, 1.96398, 0.000000
0.988274, 2.94605, 8.96851, 1.96088
0.996758, 1.99315, 0.000000, 1.29336
1.98188, 0.988941, 1.01164, 3.00253
1.97775, 0.971058, 2.02383, 2.93324
0.000000, 2.97651, 2.99638, 0.000000
3.00196, 1.9741, 2.97899, 3.00005
0.972822, 4.97838, 2.96791, 1.99131
2.00255, 2.9682, 1.96626, 2.03485
0.992416, 1.0284, 2.04579, 2.97584
2.00195, 1.97559, 3.95685, 4.0057
1.99186, 1.01098, 0.000000, 1.98486
1.9878, 2.98513, 0.000000, 3.96278
1.97388, 0.989879, 0.994321, 3.98431
0.000000, 0.000000, 3.95193, 0.000000
1.96626, 2.96517, 1.96893, 5.00261
0.963393, 1.97577, 6.94363, 2.92624
1.99491, 2.94377, 2.01945, 5.01302
4.98028, 1.98496, 1.98812, 2.97823
3.01341, 1.00379, 2.97552, 0.000000
3.00175, 2.96818, 3.97086, 3.00269
1.01014, 1.98852, 2.0153, 2.00495
1.98713, 1.98809, 2.01314, 0.971069
6.06488, 2.01075, 1.98675, 0.994323
6.93876, 0.000000, 1.008, 1.00531
2.00735, 1.99968, 0.000000, 1.94845
0.989299, 1.00368, 2.00129, 1.97656
6.9902, 1.9912, 1.9684, 1.99625
2.00345, 2.00501, 0.994505, 2.97171
1.97338, 3.93926, 0.986126, 1.99457
0.997172, 3.9986, 2.03531, 0.99354
0.987767, 0.978242, 0.000000, 2.00199
0.000000, 3.98686, 4.95745, 0.984537
3.00584, 2.96268, 0.000000, 2.026
1.98301, 2.99691, 4.94336, 0.953149
3.97602, 2.00778, 1.00162, 0.998752
2.00054, 2.95573, 3.03264, 3.95524
1.03082, 3.94942, 2.00602, 2.02794
1.98729, 3.99378, 3.99219, 3.97547
0.000000, 1.00144, 1.01627, 2.00907
2.01677, 0.000000, 3.98576, 4.91459
0.994011, 1.97478, 2.96049, 1.00185
0.000000, 2.00903, 1.01996, 3.98165
5.94899, 2.00065, 3.94421, 3.98134
2.01015, 2.9821, 0.997826, 1.99643
2.94115, 1.99193, 1.98981, 3.00566
4.97148, 2.99597, 0.998226, 2.01551
0.000000, 1.98539, 1.00024, 0.000000
2.01046, 1.96382, 1.94904, 2.00662
1.02883, 1.00377, 0.99925, 2.01098
0.993326, 2.00988, 5.0402, 0.000000
1.02218, 0.958476, 0.000000, 2.9934
4.9566, 0.000000, 2.9802, 0.000000
3.95922, 0.970122, 1.99967, 0.000000
3.91092, 2.97822, 2.02983, 1.00024
0.000000, 1.0284, 2.00858, 1.01277
0.000000, 0.995827, 1.00216, 2.00881
2.99093, 0.000000, 0.994332, 1.01996
0.986702, 3.96664, 4.97437, 0.998923
2.99232, 2.97671, 1.97958, 3.95621
3.96941, 1.00137, 2.03246, 0.000000
0.000000, 1.99379, 1.97, 0.995842
4.96536, 1.98127, 0.000000, 0.000000
1.98571, 3.00011, 2.00067, 2.00546
1.01176, 1.00531, 3.00195, 1.96561
0.000000, 1.99522, 0.000000, 1.01495
1.00776, 4.94101, 0.000000, 1.00822
2.03189, 1.99671, 1.99371, 0.986702
2.9815, 1.00395, 0.000000, 2.97977
1.01753, 1.95876, 4.02364, 0.000000
1.01925, 0.990101, 1.02066, 1.98993
6.03036, 0.000000, 1.01345, 2.99134
0.979151, 2.00695, 0.991909, 1.97102
0.000000, 2.98203, 4.0121, 3.00718
1.99274, 0.998327, 2.0102, 0.000000
1.99734, 2.004, 2.00327, 1.03063
2.00953, 0.000000, 2.97642, 0.000000
3.00222, 3.03065, 4.01834, 1.98436
2.95738, 4.97322, 7.04884, 2.95946
1.9957, 5.00381, 0.992768, 6.90311
3.97249, 1.97949, 2.97294, 6.88867
5.94836, 3.96353, 9.94787, 4.96233
4.98868, 5.93969, 1.9842, 1.98902
4.99174, 6.01716, 5.0222, 3.03709
6.28185, 7.01717, 0.992619, 2.95648
1.14147, 2.99198, 1.00658, 4.01908
1.97086, 1.9897, 3.99467, 1.96904
0.000000, 3.96618, 2.13917, 1.98492
2.01896, 2.96846, 0.994553, 0.993668
0.999736, 0.000000, 1.96536, 1.96016
3.00783, 0.994961, 0.000000, 2.0055
1.99425, 1.9625, 3.98989, 3.01799
4.00122, 2.97099, 3.01102, 4.02136
3.98114, 0.000000, 0.985136, 1.00216
1.95857, 0.000000, 0.000000, 2.01913
3.95774, 0.990064, 0.000000, 0.000000
2.98868, 2.02508, 1.93509, 0.000000
1.97655, 1.95324, 1.96217, 0.968198
2.96786, 4.94403, 2.98545, 0.000000
2.96398, 2.92691, 3.01106, 0.985436
0.000000, 4.0081, 0.000000, 2.99813
1.99473, 1.00377, 1.9957, 0.993811
0.99981, 1.95154, 0.991942, 1.03092
2.99389, 2.99303, 1.01777, 3.01255
3.97511, 1.02824, 3.95659, 3.94896
1.98722, 2.00004, 0.991792, 0.988941
0.000000, 3.99606, 0.995278, 2.97687
0.000000, 0.996603, 2.00229, 4.9163
0.962919, 2.99528, 1.95175, 0.993782
0.000000, 0.000000, 2.94273, 5.00739
2.00671, 2.99197, 0.985895, 1.99246
2.99803, 0.998923, 2.9445, 1.0009
3.00274, 1.02883, 2.95295, 3.02112
1.99808, 0.000000, 0.999406, 0.000000
1.97149, 1.95682, 1.00287, 0.000000
2.97813, 1.9843, 1.98711, 0.000000
0.992416, 1.00438, 1.98719, 2.97129
3.01136, 3.99079, 3.95671, 1.00278
0.974621, 0.000000, 1.00682, 1.97707
3.01243, 0.989299, 1.98149, 0.000000
6.03257, 0.000000, 0.989299, 1.00085
2.98715, 2.95869, 1.99354, 3.95913
2.9958, 1.95546, 0.971058, 7.00943
0.983918, 1.00594, 1.99614, 0.977623
0.997334, 0.000000, 0.000000, 2.99031
0.996212, 0.977416, 0.998526, 2.03694
2.04273, 0.000000, 3.01316, 4.93627
2.94745, 0.984537, 1.9665, 2.96152
0.000000, 3.9735, 0.000000, 0.994105
2.98075, 2.01054, 0.000000, 0.988941
2.97143, 2.00456, 2.01038, 0.979109
2.01957, 1.01495, 0.986881, 0.000000
0.985519, 0.000000, 2.00251, 5.9951
1.99562, 1.99279, 1.97402, 2.03895
0.991619, 1.00139, 0.992145, 0.991819
1.99305, 1.97147, 0.996403, 1.00185
0.000000, 1.98514, 4.0029, 1.98917
1.97712, 0.978338, 0.991773, 1.99282
1.98677, 5.93172, 2.00091, 3.9786
5.00484, 3.01515, 3.9684, 2.02876
4.95649, 1.97222, 2.98901, 0.982887
3.01214, 1.96088, 0.999001, 4.01652
3.94908, 0.993375, 2.98383, 1.98207
0.993811, 3.98596, 0.997087, 1.98361
1.01364, 2.96248, 1.00929, 0.992768
2.93261, 1.99331, 0.96579, 0.000000
3.05388, 0.983878, 0.000000, 1.98383
0.000000, 0.988274, 6.94522, 0.000000
0.996544, 1.96393, 2.92481, 3.98902
3.98744, 3.0121, 2.01988, 3.01296
2.9785, 0.992963, 2.96344, 4.0512
0.985326, 0.991942, 3, 3.01146
0.000000, 2.0121, 0.000000, 1.97437
2.98137, 2.00939, 2.96834, 2.97634
0.989273, 0.000000, 1.95582, 0.000000
0.000000, 1.99843, 0.000000, 3.01327
0.988669, 0.000000, 0.000000, 0.000000
0.000000, 0.000000, 1.03777, 1.98584
3.01899, 2.97584, 2.95277, 0.000000
0.985255, 2.96111, 2.97868, 0.000000
0.000000, 0.000000, 2.97855, 0.000000
1.97471, 1.99581, 0.000000, 0.000000
0.965384, 3.97907, 0.000000, 0.000000
1.95847, 0.994332, 0.975458, 3.01642
0.000000, 3.97276, 2.00962, 1.00329
0.995346, 0.000000, 2.97659, 0.981434
2.04627, 1.96873, 0.000000, 2.99731
1.00195, 2.02175, 6.00851, 0.000000
1.97474, 3.00815, 2.00432, 1.97629
1.99202, 0.000000, 3.92229, 0.985136
0.000000, 2.95314, 1.98868, 4.99945
4.01799, 0.993958, 2.01494, 1.99981
1.04108, 1.02936, 0.971069, 0.994151
2.96099, 2.97643, 0.000000, 1.99204
1.94105, 0.000000, 1.98638, 1.99668
0.000000, 0.992419, 4.96189, 1.00329
1.98382, 4.94308, 0.988021, 0.98268
1.97965, 3.98412, 4.03715, 0.985255
3.00645, 2.98782, 2.00288, 1.02077
3.96292, 2.0122, 0.974621, 1.00443
1.01373, 0.000000, 4.94149, 1.96749
3.9833, 0.987767, 1.98539, 0.985326
1.99157, 0.962919, 1.003, 0.000000
3.06314, 0.986329, 1.98769, 0.999444
1.01091, 4.972, 4.93174, 0.000000
1.98934, 2.00716, 2.01058, 1.99988
0.000000, 2.992, 1.95519, 3.00356
2.02642, 4.00381, 0.983409, 0.998964
4.99744, 0.000000, 0.000000, 1.98586
3.04577, 3.92726, 1.99151, 1.99653
0.99589, 1.03375, 2.99483, 2.01047
1.99555, 0.995516, 1.96141, 1.96607
1.00007, 2.01507, 1.99031, 0.998923
1.99594, 0.993865, 0.000000, 2.96855
0.974621, 0.992145, 2.95559, 0.986702
2.00676, 0.995524, 1.99711, 0.99257
1.95001, 2.00367, 2.94252, 0.984412
2.0099, 1.97571, 2.01338, 1.9795
3.00021, 2.99836, 0.998226, 1.99336
0.975458, 1.01495, 0.989806, 2.01577
2.98718, 0.983918, 1.00436, 2.97434
2.96783, 1.00195, 6.92711, 1.15151
1.01009, 0.000000, 0.96579, 4.98566
0.000000, 1.00602, 0.000000, 0.984347
1.99999, 0.000000, 1.01336, 1.01487
0.000000, 1.0284, 2.97726, 1.98646
1.95546, 0.991942, 0.994483, 0.979388
0.987519, 0.992963, 0.000000, 1.00127
1.00596, 0.973592, 2.95041, 0.973592
0.972822, 1.99886, 4.00187, 0.000000
0.991773, 0.000000, 1.98794, 2.01913
1.97931, 2.01892, 0.000000, 1.99047
0.994151, 1.00438, 1.98195, 1.98943
1.00236, 1.00168, 2.98078, 1.95616
0.000000, 0.994781, 0.993865, 1.98493
0.99926, 2.01092, 0.977428, 4.98275
1.9866, 4.97443, 0.000000, 3.98106
1.96048, 0.980344, 5.98834, 1.97757
2.99446, 1.99109, 0.993303, 1.98636
0.990064, 2.00898, 1.96939, 0.000000
0.995215, 1.97668, 0.98946, 1.97641
1.00531, 1.98259, 1.98481, 0.000000
4.94045, 0.000000, 2.014, 3.02529
0.991784, 0.000000, 1.94377, 2.96414
1.9809, 2.96945, 0.000000, 1.9903
0.995784, 2.94324, 1.9889, 3.99957
0.000000, 2.01936, 2.96654, 2.00164
1.99727, 2.97593, 1.99103, 1.00377
2.97992, 2.96126, 4.97753, 4.96783
1.00583, 0.989296, 2.03264, 1.99134
6.97491, 2.99614, 5.00633, 7.99665
2.00343, 2.00386, 5.97736, 6.03449
2.94626, 5.94762, 5.96644, 2.99229
3.00147, 5.98966, 7.9239, 4.9598
8.98989, 6.01252, 6.9797, 5.89281
6.98747, 6.96843, 12.9441, 4.98296
8.9807, 6.93117, 6.99448, 2.95126
7.01379, 9.08121, 5.9479, 7.92246
4.99249, 4.03451, 6.05741, 2.97089
6.07192, 2.95107, 3.00508, 3.00235
3.016, 2.01499, 3.00468, 4.98413
5.95041, 2.03856, 1.9638, 3.01776
1.97808, 3.96473, 4.94895, 3.98796
1.00109, 5.98626, 0.987519, 0.000000
3.9582, 4.97968, 0.995842, 2.99005
1.00139, 0.000000, 0.000000, 3.98776
1.00449, 3.99927, 0.000000, 0.977416
3.99635, 1.98825, 0.975574, 3.97237
0.992416, 0.000000, 0.000000, 0.000000
0.995371, 1.00552, 1.97424, 0.979404
2.99868, 4.00243, 0.997708, 2.97769
0.000000, 0.000000, 0.976479, 4.96243
0.000000, 2.97932, 0.000000, 2.97044
0.998445, 0.999444, 1.98322, 0.979404
0.000000, 0.994511, 1.98505, 0.995682
2.98565, 0.000000, 3.96059, 0.000000
1.97604, 0.958476, 3.98478, 1.99446
3.96084, 1.99089, 3.98988, 0.000000
1.15151, 0.990595, 0.99534, 2.98886
0.997802, 0.979394, 1.99474, 2.00877
1.0166, 4.91702, 2.98061, 2.98539
1.01689, 1.9944, 0.998308, 2.9719
4.01364, 0.978338, 4.02121, 1.01164
0.99971, 2.98754, 3.02773, 0.995524
3.96517, 0.000000, 3.00827, 0.979421
0.000000, 1.94546, 0.000000, 0.000000
2.98692, 0.995784, 0.000000, 2.96137
4.9949, 3.97251, 0.983873, 1.00488
0.000000, 1.98607, 1.9813, 0.99083
1.99476, 0.000000, 1.98307, 1.00533
5.01387, 0.000000, 0.996859, 1.95859
0.000000, 0.000000, 1.98809, 2.95787
0.975458, 1.98746, 1.00043, 0.999808
1.98337, 2.00045, 1.94958, 1.01709
5.90857, 0.998445, 1.97777, 3.8826
1.99284, 0.000000, 1.00539, 4.98798
0.000000, 2.06121, 0.000000, 0.000000
2.00712, 1.99305, 3.05119, 1.97747
1.00146, 3.97468, 1.99993, 0.000000
4.96402, 0.000000, 3.95769, 1.96183
0.970326, 1.99417, 0.986464, 1.96703
0.000000, 0.984412, 1.98935, 1.99892
2.0367, 2.14597, 1.00216, 1.95813
1.9706, 0.987345, 2.01267, 3.02834
2.99073, 0.000000, 1.97543, 0.000000
4.00297, 0.000000, 3.96023, 3.93464
1.9687, 1.99635, 0.000000, 0.977629
4.00555, 3.03814, 1.00382, 3.00015
0.990415, 0.000000, 2.96115, 1.01091
2.98898, 2.00637, 0.99604, 0.000000
0.000000, 1.98518, 3.00728, 0.000000
0.996403, 1.01753, 3.98539, 0.000000
0.994079, 0.000000, 1.98218, 1.0092
0.994483, 2.99229, 0.000000, 2.00776
0.000000, 0.98855, 0.999481, 1.00127
2.03217, 4.00036, 3.97522, 0.000000
1.99513, 2.97923, 1.9667, 0.000000
0.975458, 3.976, 0.997874, 2.97805
1.00007, 3.99248, 0.970326, 2.98301
0.991792, 1.0199, 1.99573, 0.985326
2.00204, 0.975458, 0.975574, 0.976204
1.00187, 1.99348, 0.997664, 0.000000
0.000000, 1.98435, 0.986874, 1.98191
5.96864, 1.98276, 2.99744, 2.01795
0.000000, 2.95596, 0.985436, 0.997664
0.000000, 4.01914, 0.984783, 1.00849
1.00186, 0.000000, 3.01719, 0.000000
0.992416, 0.000000, 2.00241, 0.000000
3.97629, 1.99491, 2.01485, 0.000000
1.00095, 1.00168, 4.01502, 0.000000
3.00725, 1.00099, 0.000000, 1.03092
0.982541, 2.95854, 3.0206, 0.976707
0.98511, 1.97713, 0.000000, 1.97988
0.970122, 0.000000, 2.00345, 1.96894
0.971559, 0.996947, 0.000000, 0.000000
3.01319, 0.987034, 0.000000, 0.982377
2.99002, 2.0205, 0.985255, 0.999444
1.98683, 0.986181, 1.96095, 2.97974
3.98906, 2.99202, 5.91379, 1.99637
3.98493, 0.000000, 0.000000, 1.96601
1.0237, 2.00467, 1.01277, 3.02945
0.976479, 1.96466, 2.96281, 0.000000
0.000000, 0.000000, 0.000000, 1.99225
3.02725, 1.96905, 1.00487, 0.994332
1.97668, 1.98119, 1.95096, 4.95122
0.989299, 0.000000, 1.15151, 2.02769
2.00336, 0.000000, 1.97366, 0.000000
0.971069, 0.999736, 0.000000, 2.99282
1.9779, 5.02789, 0.98897, 0.993865
2.00122, 0.000000, 1.00776, 3.02979
0.000000, 3.91958, 2.00545, 0.000000
1.95133, 1.01056, 0.000000, 0.000000
0.995809, 1.98832, 0.986329, 2.98186
2.0013, 2.00671, 0.993303, 3.98443
3.99953, 5.94491, 2.99072, 2.98689
2.00111, 1.99786, 0.998101, 1.99372
2.01013, 3.98, 1.99216, 2.98325
0.000000, 1.99391, 0.979151, 2.99455
2.01411, 1.9775, 0.000000, 0.986874
0.000000, 0.961223, 1.97041, 1.9952
4.96359, 0.000000, 0.995167, 1.97986
2.97254, 3.95989, 2.97139, 1.01774
3.01431, 0.987059, 3.01183, 2.94239
0.988982, 0.973592, 4.01253, 1.9695
0.983988, 2.95581, 3.98064, 0.000000
1.00139, 0.000000, 1.003, 0.989296
0.000000, 5.94302, 0.000000, 2.00731
3.95797, 0.992862, 1.97821, 2.97669
0.000000, 1.99299, 0.986062, 2.00166
2.96442, 1.00162, 1.99605, 2.92518
1.96975, 0.988021, 0.000000, 2.952
1.98084, 1.01585, 1.96492, 0.000000
0.988021, 3.01576, 0.991909, 2.99884
1.00033, 0.9976, 0.998265, 3.98653
3.0117, 0.992221, 3.0357, 2.01423
2.95192, 0.990101, 0.98511, 0.996693
0.994791, 2.94788, 0.967456, 2.97922
1.99611, 0.991808, 4.95891, 2.9778
0.977416, 1.00193, 1.01345, 3.01236
3.98438, 1.00168, 4.97418, 1.96615
0.962919, 0.992221, 3.9994, 4.94448
0.000000, 4.97653, 2.95755, 3.94564
1.00594, 0.994134, 0.000000, 0.98946
5.04322, 1.9745, 2.02563, 2.01392
2.9824, 0.000000, 3.94818, 3.97601
1.99844, 3.9748, 0.000000, 0.996603
1.96862, 0.000000, 0.983888, 1.95924
3.97866, 5.99035, 0.99662, 1.01373
0.974621, 0.96579, 1.97938, 0.982552
1.96894, 3.08916, 2.02373, 2.98514
1.98683, 0.993644, 3.98726, 0.000000
0.995634, 0.000000, 1.9678, 3.98886
2.00524, 1.97808, 0.000000, 2.97605
0.991968, 1.98692, 2.98349, 0.000000
2.00715, 3.94829, 1.93324, 0.000000
0.98268, 0.000000, 1.00186, 5.99089
2.98492, 1.01273, 1.01361, 0.000000
0.989299, 3.99355, 3.01795, 1.97483
1.98754, 0.000000, 0.989522, 0.000000
0.999444, 0.982697, 0.000000, 0.000000
6.94021, 0.000000, 2.97391, 0.993218
0.982224, 1.97911, 3.97448, 0.000000
2.0265, 0.000000, 3.01962, 1.98101
2.99414, 1.00193, 2.01972, 0.998752
0.000000, 0.000000, 5.01251, 1.9867
0.990595, 2.99459, 2.00249, 2.9749
2.97306, 1.97191, 0.980006, 3.99429
1.00109, 1.99288, 0.995864, 1.95705
1.97033, 1.01865, 0.983122, 1.00487
0.988588, 3.98369, 1.97551, 1.00449
0.986472, 1.98675, 2.00541, 2.01619
2.01667, 1.99001, 3.03047, 2.9767
4.93542, 0.000000, 0.000000, 0.000000
1.00024, 0.000000, 0.999617, 1.01557
0.000000, 3.02401, 1.97243, 0.986464
1.95702, 1.95905, 2.02707, 0.994483
0.990064, 1.00146, 1.9803, 2.99296
1.01487, 2.97515, 2.97492, 0.000000
2.97313, 3.0396, 1.99373, 1.98718
2.00052, 1.95243, 1.98386, 4.90331
3, 4.94867, 0.978242, 1.96374
1.00484, 1.99329, 2.00599, 2.99448
0.000000, 0.991819, 2.00703, 0.000000
5.14613, 0.000000, 2.01483, 3.91212
2.9846, 3.9264, 1.99273, 0.986874
0.990595, 0.000000, 0.994199, 1.99844
2.01436, 1.99385, 3.96689, 0.000000
0.000000, 3.0165, 0.999802, 3.94165
3.95587, 1.97847, 0.000000, 0.990515
0.994199, 1.00329, 0.000000, 2.00975
1.98087, 0.990224, 0.972822, 3.9737
2.99944, 2.99901, 1.00076, 0.983507
1.98872, 1.96436, 1.97829, 3.00281
4.01436, 0.973592, 0.000000, 4.97081
1.00914, 0.988274, 1.98805, 0.996859
1.00076, 4.98745, 0.000000, 1.95436
2.01444, 0.000000, 3.0502, 2.00263
1.98901, 1.00207, 0.000000, 0.000000
2.01605, 1.99513, 0.982887, 0.000000
0.000000, 1.96289, 1.99282, 3.97379
0.000000, 2.00533, 2.01094, 0.000000
1.9845, 1.01164, 2.01363, 0.000000
2.99095, 0.000000, 2.98886, 2.01256
2.94189, 0.995371, 0.998019, 0.978305
0.986062, 2.96397, 1.98996, 3.98575
1.97433, 2.9571, 1.0237, 0.982541
5.00653, 1.98718, 1.00368, 1.97795
0.000000, 0.976204, 1.97178, 1.98568
0.000000, 3.0099, 2.02575, 1.95774
1.93324, 0.984056, 3.9903, 3.96908
2.98385, 0.996101, 1.98135, 0.000000
1.99367, 0.000000, 5.90576, 2.97718
3.98808, 3.98787, 3.00054, 2.00362
4.02006, 1.99815, 1.00716, 0.998752
1.99199, 1.00095, 6.96979, 0.987011
0.990064, 2.98565, 0.99662, 0.000000
0.000000, 2.96689, 2.98432, 3.98598
0.996544, 1.99535, 0.000000, 0.000000
3.92832, 0.987066, 0.000000, 1.98578
2.04446, 0.000000, 0.000000, 2.99088
3.97025, 0.994791, 0.98369, 0.000000
1.99864, 0.986178, 4.96627, 1.97126
2.9564, 0.987345, 1.94788, 2.0156
3.02343, 0.995516, 2.01134, 0.993865
0.994199, 1.00024, 1.94699, 1.94849
1.01487, 0.000000, 3.97025, 3.9434
1.01009, 1.98283, 3.02198, 2.01703
1.94974, 0.000000, 0.000000, 1.99543
1.00074, 1.99146, 1.003, 0.971069
0.000000, 2.95004, 0.000000, 2.95213
0.988084, 0.000000, 0.997172, 1.99806
1.98768, 1.95186, 0.000000, 1.9841
6.99281, 2.96022, 6.96551, 1.97952
1.98052, 0.995524, 3.00494, 2.98514
2.96751, 2.01785, 0.990698, 1.99811
7.99185, 3.01705, 1.00007, 2.0071
0.994199, 3.13835, 0.999001, 0.000000
5.96973, 0.991942, 0.974621, 1.00007
1.00395, 0.000000, 2.98378, 2.01402
3.011, 2.99564, 2.01711, 1.97791
1.96942, 3.96929, 1.00085, 0.984658
2.0054, 1.00684, 0.988463, 1.98571
0.994483, 0.000000, 0.000000, 1.00162
2.99052, 1.99469, 2.15051, 1.96766
1.99617, 0.000000, 4.96261, 1.97233
1.98862, 3.0141, 0.968198, 1.96437
5.14334, 2.97208, 1.98984, 2.00036
3.03892, 0.000000, 3.95288, 0.000000
0.000000, 1.99072, 0.999481, 0.991022
0.000000, 0.000000, 1.03117, 0.992768
0.992196, 1.01052, 3.00899, 0.995516
0.999001, 1.98058, 1.00594, 0.000000
0.975458, 1.98243, 0.000000, 3.98226
3.973, 0.994888, 3.97356, 1.99471
1.98262, 0.998327, 1.97612, 1.01139
5.97765, 1.98054, 0.000000, 1.00264
1.96879, 0.000000, 4.95199, 1.95437
0.999718, 3.94879, 2.9453, 0.000000
0.000000, 0.99534, 2.97178, 1.98745
0.000000, 1.98599, 3.00838, 1.00716
0.987066, 1.99262, 3.01361, 1.97539
1.99617, 4.93339, 1.98504, 1.00146
3.94538, 2.97883, 0.978234, 1.99298
0.980312, 0.995587, 2.92936, 2.97072
2.9709, 0.000000, 3.99001, 3.00603
2.01352, 2.9452, 3.92903, 1.02261
2.02191, 1.99733, 0.997463, 2.0245
1.0081, 2.99071, 2.01197, 1.99685
0.000000, 1.99002, 0.978305, 0.000000
3.99888, 0.987519, 0.979388, 0.975574
1.00109, 1.98908, 2.01115, 2.96772
0.999736, 0.995809, 2.9882, 0.998445
1.98406, 4.0252, 2.99347, 2.94156
0.000000, 1.9761, 0.000000, 1.99278
2.93662, 3.01457, 2.00269, 0.987895
0.000000, 0.000000, 2.03756, 1.9993
2.00898, 7.00334, 3.9664, 3.04323
2.00181, 0.986178, 3.95259, 1.98075
3.99644, 0.987345, 1.9742, 2.95692
0.000000, 1.01139, 0.000000, 2.01673
2.96665, 1.97469, 2.00393, 2.00593
4.95361, 3.0077, 1.98118, 3.00381
1.00387, 3.93138, 0.993782, 0.984871
0.000000, 2.00098, 0.995842, 0.000000
2.96842, 0.988126, 0.000000, 1.97627
1.99627, 2.94826, 0.99257, 0.979388
2.02842, 4.01069, 2.98113, 1.00599
0.000000, 1.00139, 0.979151, 0.999084
3.97769, 0.991942, 1.96921, 3.98321
3.97552, 1.97643, 2.93694, 2.99688
3.01698, 1.97704, 0.000000, 1.96642
1.9941, 1.93666, 1.99697, 0.000000
1.963, 1.99514, 3.93551, 0.000000
3.98824, 3.92808, 1.02936, 2.97032
6.99826, 3.04072, 2.96888, 0.999989
2.99596, 1.98201, 0.000000, 0.000000
0.000000, 5.14137, 1.98555, 0.000000
1.01988, 2.01717, 3.97177, 2.98839
3.97218, 4.00254, 3.98659, 0.985255
0.988274, 2.11842, 0.000000, 3.96708
0.000000, 4.01553, 0.988941, 0.000000
1.99309, 0.000000, 1.00395, 0.995809
0.989299, 1.00024, 1.98377, 0.994688
5.99647, 2.96494, 0.998445, 2.95988
1.97828, 5.00886, 1.97568, 1.00602
0.988008, 3.00476, 2.98364, 1.00617
0.000000, 1.98457, 0.000000, 0.972822
3.99258, 1.00168, 0.000000, 0.000000
2.99232, 2.00534, 1.98142, 2.07044
0.994888, 0.988941, 1.97634, 1.99366
2.99267, 1.97836, 1.00583, 2.00908
0.986062, 1.00099, 1.99645, 4.97707
2.97682, 1.9868, 0.990064, 2.00018
4.00301, 1.0166, 2.98536, 1.9789
1.97675, 1.97834, 1.99419, 1.01373
0.971069, 3.014, 1.98084, 0.999002
1.00538, 2.93694, 2.93822, 0.000000
1.97226, 4.98606, 0.000000, 1.99025
3.00458, 0.000000, 1.97248, 1.99049
0.997475, 0.953149, 1.99754, 0.000000
0.989299, 1.98125, 1.00169, 2.98895
0.995842, 1.97687, 0.999444, 2.01121
0.97895, 2.00075, 3.96596, 3.00588
1.9778, 3.00508, 1.01345, 0.000000
0.997172, 0.993865, 3.0011, 0.999658
0.98897, 1.98038, 3.94979, 0.994151
2.89973, 0.967456, 3.96395, 0.997087
2.98231, 1.99541, 2.99868, 0.995682
0.000000, 0.995017, 1.00599, 0.000000
0.000000, 2.02279, 3.9521, 2.0054
1.97658, 3.96642, 1.97494, 2.9816
2.97912, 3.97624, 0.000000, 1.98206
3.02206, 7.911, 2.00215, 3.02586
0.984385, 3.99343, 1.99352, 3.97911
0.000000, 0.991239, 0.995682, 0.987343
2.9953, 2.0037, 0.983545, 6.00673
2.0116, 3.98711, 0.998923, 0.991819
3.0084, 0.971058, 3.987, 2.96016
0.000000, 2.99664, 1.97595, 2.99666
1.00494, 2.01695, 1.98334, 1.96834
1.9884, 2.97696, 1.98559, 2.9741
0.000000, 2.9819, 1.98691, 3.0383
5.98581, 2.98462, 2.0174, 3.02858
2.99416, 0.000000, 3.95342, 2.96132
2.98304, 2.00976, 4.01228, 0.999481
1.97918, 0.993811, 0.987034, 3.00599
3.98564, 1.97333, 0.968198, 0.998356
3.97614, 0.000000, 1.97759, 1.97078
1.96044, 1.0032, 0.994034, 0.994034
0.983545, 2.0362, 0.977425, 1.98444
0.000000, 2.9835, 4.01965, 3.96171
2.93556, 1.98389, 1.01009, 1.9691
0.97895, 1.97105, 2.96243, 0.000000
2.99944, 1.01147, 2.04804, 0.000000
1.96998, 0.000000, 0.980006, 0.991619
0.977834, 0.978133, 1.99702, 3.97317
1.99621, 0.995842, 1.99848, 4.96611
0.000000, 0.98369, 0.970326, 0.991909
4.97827, 0.975458, 1.98003, 2.97265
5.00987, 4.02812, 2.9844, 2.98278
2.01198, 0.976638, 2.94323, 2.991
0.000000, 1.00488, 0.000000, 0.000000
0.983122, 2.01745, 1.96783, 1.97953
1.968, 3.00904, 1.98291, 2.96972
2.98021, 0.989224, 2.99209, 0.984056
3.04719, 5.00262, 2.92968, 2.96394
0.996982, 1.00455, 1.96644, 1.01008
0.000000, 0.000000, 1.02498, 1.0018
1.9833, 0.983888, 1.0085, 3.95285
2.96178, 0.996913, 5.97217, 1.95469
0.989437, 1.99351, 0.986329, 1.02859
1.99739, 4.00765, 3.0407, 1.99988
1.98304, 1.99937, 3.15951, 2.13463
0.999001, 1.99987, 1.00073, 3.99504
2.98397, 3.97313, 1.98408, 0.000000
2.99878, 1.96024, 4.00613, 1.97077
0.000000, 1.98968, 3.01025, 1.98599
1.01901, 1.9831, 3.01756, 2.9871
0.986062, 2.00582, 1.98806, 3.93312
2.01482, 2.94949, 4.97128, 2.94976
2.99722, 0.986178, 0.000000, 3.95801
1.01777, 0.983409, 3.98572, 2.97397
1.00938, 0.992416, 0.000000, 0.000000
2.97267, 1.99668, 0.99065, 0.000000
0.000000, 1.00753, 1.99397, 1.01936
6.04495, 0.000000, 0.970326, 0.996603
1.00377, 0.000000, 2.97809, 2.00235
1.96878, 3.97054, 1.98146, 2.99866
0.987767, 0.981434, 2.99545, 4.96557
3.93301, 0.000000, 1.96815, 0.000000
2.99244, 2.00248, 3.0234, 3.02291
3.98904, 2.99005, 1.98887, 0.000000
0.000000, 2.94367, 2.99603, 3.95853
2.98045, 4.98022, 2.00353, 1.96982
3.99199, 2.96165, 1.00575, 3.05394
1.99309, 4.9502, 0.000000, 1.98492
0.000000, 3.95695, 3.01043, 0.99354
2.01035, 2.01104, 3.02932, 1.02859
1.96607, 1.96924, 3.00709, 0.976479
0.992885, 3.03538, 3.00189, 3.98332
1.96089, 2.98174, 2.00017, 3.95915
1.01009, 4.96321, 0.985318, 0.000000
1.99864, 1.00998, 1.00085, 0.000000
0.985255, 1.96512, 4.95779, 1.99985
1.01709, 0.979404, 0.988941, 4.96781
2.99408, 0.992874, 1.94556, 0.96579
3.91871, 1.00494, 2.01446, 1.96956
3.985, 3.98655, 3.02428, 1.98926
0.99604, 2.97091, 2.02421, 4.93634
2.97116, 0.000000, 1.96844, 0.991157
0.980384, 1.98828, 0.973592, 1.97973
1.99453, 2.99324, 2.92408, 2.95564
0.995278, 0.992319, 3.01515, 0.000000
0.000000, 1.97726, 2.96389, 2.97902
1.00476, 2.98109, 4.00985, 2.97538
0.000000, 1.00539, 2.0126, 1.00195
2.97365, 4.97397, 1.98797, 3.98422
3.97332, 1.99362, 1.99943, 1.02767
3.93455, 2.01396, 2.00483, 1.01052
2.97959, 5.91856, 2.12901, 2.99894
4.00263, 0.997965, 2.98094, 1.00186
0.984948, 2.9843, 3.01857, 3.00728
1.99979, 1.98679, 1.02767, 1.9938
0.997842, 3.97714, 2.99737, 2.98721
3.98404, 3.95919, 2.01107, 1.00085
4.94081, 1.97658, 0.000000, 1.99867
0.000000, 0.989114, 4.04906, 1.98512
2.00871, 1.99015, 2.9937, 4.25796
2.97173, 0.986464, 3.02389, 4.95095
4.98959, 1.00917, 0.000000, 1.97986
7.00157, 0.99926, 1.97099, 1.9812
1.98544, 1.0166, 2.99254, 6.97074
0.000000, 0.000000, 0.000000, 1.01777
2.98507, 3.99132, 1.02261, 6.91679
0.000000, 1.97876, 1.98797, 11.9207
1.98268, 4.93363, 1.98002, 0.993375
4.00393, 1.95907, 4.03105, 0.979404
0.000000, 0.987754, 0.000000, 3.99121
2.99832, 2.95408, 1.98831, 1.99034
0.9976, 2.32636, 2.99557, 0.169235
1.97747, 1.98056, 1.96935, 2.95192
1.00186, 2.99366, 0.000000, 2.99948
2.99903, 1.9719, 1.99071, 1.96537
4.02416, 1.97954, 1.99601, 1.00193
1.01557, 0.98536, 1.97142, 3.03164
1.99949, 3.01919, 2.01096, 2.96987
1.99675, 3.02815, 0.000000, 3.97687
1.00007, 3.99415, 3.01724, 0.000000
3.99727, 4.94333, 0.000000, 2.9593
0.99971, 2.01563, 3.01454, 1.00109
2.99708, 1.00488, 2.98432, 1.99345
0.000000, 1.98149, 0.988732, 2.96567
1.01901, 1.00499, 1.99364, 0.987767
3.0301, 4.97209, 2.00436, 1.00329
5.94948, 2.01461, 2.02259, 2.99925
3.94729, 4.97205, 0.980692, 1.95173
1.01478, 0.000000, 3.97368, 0.000000
0.000000, 2.99398, 2.97274, 1.97631
2.32775, 0.000000, 1.02936, 2.96283
1.98102, 2.9967, 0.000000, 1.00837
1.98637, 4.9999, 1.9751, 0.983482
1.96976, 3.9991, 0.979421, 2.99283
4.94107, 1.97038, 5.91472, 2.97123
1.01345, 4.014, 7.98456, 0.998405
0.993764, 2.96063, 3.96653, 2.01564
2.98098, 3.03338, 1.97635, 1.00449
2.98007, 1.96144, 1.97406, 5.94823
4.16706, 0.997232, 1.01495, 0.993303
1.96374, 1.99022, 5.99778, 0.987507
2.95303, 3.96099, 1.01016, 1.99493
2.04048, 2.00384, 2.98761, 3.00782
2.00824, 2.95648, 5.03121, 1.96766
3.01159, 0.991784, 1.96297, 3.97113
1.95817, 3.04218, 2.00942, 1.98198
4.01722, 8.9419, 5.03542, 2.0002
4.0149, 3.93461, 1.99064, 5.95887
3.00089, 2.95956, 3.00601, 2.96437
2.98894, 1.97684, 6.98161, 0.000000
3.99644, 1.97107, 1.97188, 1.01616
4.0097, 1.00146, 3.04274, 1.00806
2.00269, 6.0243, 0.969093, 0.983988
2.97341, 4.98033, 3.02858, 4.99308
3.98696, 1.96654, 3.00074, 0.968573
3.93928, 3.98567, 1.00099, 7.00044
1.99928, 0.998526, 3.96808, 1.97531
3.96795, 5.94514, 3.99687, 2.9729
4.95749, 2.9736, 2.00428, 7.00941
3.00389, 2.9807, 1.99614, 0.998923
2.96701, 2.96384, 0.991784, 4.99393
3.01369, 2.90773, 3.98158, 0.989317
0.962919, 0.989879, 4.98399, 2.00627
3.98419, 1.97906, 3.0055, 2.00497
3.00793, 0.986464, 1.97348, 4.98171
0.988084, 0.986085, 2.99855, 2.98939
4.96405, 1.99543, 1.99016, 3.0155
0.987034, 7.06019, 2.99763, 0.989402
5.98101, 1.96564, 5.98607, 7.91596
1.97313, 1.96335, 3.99042, 1.00162
2.9712, 2.0055, 6.00698, 0.000000
2.96203, 1.00716, 2.95835, 2.04456
7.01638, 3.00142, 2.99692, 0.98902
2.9982, 4.07522, 0.990224, 3.93978
0.983988, 3.00323, 2.96414, 3.98363
3.97563, 1.00146, 2.00336, 2.00242
4.98701, 2.00303, 3.9646, 4.01063
3.97008, 2.98544, 6.99623, 0.000000
1.97538, 3.93459, 2.93463, 0.992862
3.99245, 1.00583, 0.998405, 2.95925
3.00899, 2.99366, 2.98209, 5.99774
0.982552, 3.00576, 4.98411, 1.96911
3.99836, 2.98654, 1.00207, 4.02499
0.000000, 6.00815, 4.92575, 2.99454
3.01688, 6.00109, 0.997717, 4.97132
6.98454, 2.01826, 5.01533, 1.98929
0.991595, 5.98868, 2.98939, 0.996544
3.28102, 2.97658, 3.96944, 1.97833
5.97019, 4.01004, 6.0497, 3.01191
3.03064, 5.01829, 2.97806, 3.97192
5.94952, 6.02868, 6.95613, 2.98615
2.9785, 3.94344, 2.02625, 2.97989
8.03086, 6.04805, 0.999808, 7.96537
4.99186, 3.01549, 4.03194, 2.97603
8.05511, 4.01537, 4.96161, 5.96769
1.99061, 2.0009, 1.00005, 5.99495
2.99555, 7.015, 3.91079, 3.96097
4.00287, 3.03338, 4.00249, 6.95263
2.99227, 6.9212, 9.25712, 7.93042
3.00081, 1.99678, 10.1435, 5.98219
4.9821, 5.97344, 7.9272, 2.97787
0.994011, 5.93901, 2.99786, 1.97857
3.99229, 2.98577, 1.98488, 2.95909
4.04865, 4.02057, 7.997, 3.99246
2.00688, 10.8766, 5.08067, 1.00478
5.01896, 4.00961, 6.03194, 10.0193
4.0078, 3.01787, 5.91926, 4.00309
8.95532, 3.99736, 5.02392, 3.98654
4.00377, 1.98913, 3.96232, 3.99595
3.01338, 5.00462, 1.97896, 4.9244
6.95656, 4.94313, 6.01066, 2.96087
5.00065, 5.99249, 4.97797, 3.9443
3.99004, 2.96641, 7.98319, 8.03806
4.97723, 7.96651, 5.9438, 6.99797
10.0179, 5.95252, 5.95795, 12.9196
7.97181, 5.92589, 6.02519, 5.11564
12.9159, 9.92476, 5.9559, 4.93707
12.2713, 10.9119, 6.97743, 9.09968
9.90581, 5.02089, 11.9418, 9.87679
14.9313, 6.01963, 15.958, 12.2044
11.9901, 9.97016, 16.0768, 16.9931
7.9814, 9.95816, 14.8709, 10.8587
12.9499, 9.92633, 8.01794, 16.9606
13.9594, 12.0343, 15.9884, 15.995
18.921, 17.8846, 16.9773, 15.9046
11.0847, 14.9425, 25.8322, 17.9177
17.8872, 19.9545, 29.8885, 23.9044
23.8302, 35.8179, 35.8617, 9.99654
18.8851, 24.9756, 13.9068, 24.9375
30.0318, 24.9047, 16.0171, 31.7793
33.7592, 37.8984, 42.936, 52.6933
40.8986, 51.8125, 53.9307, 52.6576
48.6468, 43.6956, 63.5887, 85.5321
113.695, 166.207, 265.913, 487.108
840.489, 1214.52, 1481.07, 1789.46
2070.21, 2783.05, 2818.85, 1965.39
1409.65, 910.621, 535.669, 449.595
470.768, 507.784, 520.267, 437.314
396.692, 220.431, 117.504, 77.8508
58.8377, 40.8594, 30.9344, 30.8941
19.9395, 26.946, 25.0099, 23.847
15.0404, 20.1002, 24.0228, 19.8535
23.0262, 17.0173, 18.0674, 18.851
21.8622, 21.9857, 11.919, 12.9361
14.9257, 15.8958, 9.85627, 3.91415
10.002, 9.88163, 17.1238, 8.04572
16.0172, 13.9527, 4.97594, 6.93624
9.001, 13.9695, 9.99703, 11.0096
4.00645, 10.9587, 9.98346, 11.9056
11.8907, 7.03616, 8.36615, 5.012
10.989, 8.99072, 8.97309, 9.97712
8.9209, 11.9612, 5.98649, 8.91547
10.9748, 7.02529, 13.0492, 5.95826
8.98727, 7.98673, 8.04189, 7.96326
6.03683, 4.95222, 6.97976, 6.97897
8.96848, 10.024, 13.9032, 8.95649
8.98414, 4.96782, 3.99041, 6.96797
8.00198, 5.92062, 11.0163, 5.92669
9.0082, 5.95101, 6.99381, 4.99103
5.93546, 7.99631, 9.00844, 3.9874
7.98642, 6.91194, 10.9976, 8.92313
5.99509, 2.90494, 1.01495, 1.97096
2.97648, 6.90814, 7.95423, 7.91928
3.02727, 6.9566, 6.96684, 4.98823
3.95096, 1.97031, 6.00042, 6.01461
5.00239, 6.00568, 0.992145, 0.994553
3.98109, 4.98781, 5.97976, 4.97276
4.01054, 2.98385, 8.97704, 2.99294
9.88957, 2.91974, 5.11433, 9.96366
9.049, 11.2158, 3.99051, 9.12185
3.99138, 8.90755, 6.94819, 3.94666
2.96804, 6.96905, 2.99466, 6.97466
7.02404, 10.9698, 6.00034, 7.03688
4.97086, 1.0199, 3.98112, 5.95052
5.97862, 2.02179, 6.96755, 5.9554
1.97574, 4.99045, 4.94403, 2.99927
6.96714, 6.02325, 3.92165, 6.92342
7.91838, 3.98604, 6.9807, 5.99575
3.88921, 4.94048, 4.00457, 5.96241
2.14649, 5.9789, 4.038, 1.0032
8.02222, 3.9732, 7.97638, 3.99591
2.91988, 3.14508, 5.97006, 4.90939
3.98694, 0.000000, 2.98694, 7.93919
6.95984, 4.96324, 3.02086, 2.98819
4.94247, 4.95381, 3.96985, 5.99008
3.90394, 6.95484, 5.94898, 3.0008
3.95757, 0.98537, 2.93141, 3.98864
5.95519, 4.13603, 3.98056, 4.97166
2.99297, 7.89248, 6.97231, 0.000000
2.97662, 3.98652, 3.9459, 1.97457
2.96849, 5.97888, 1.96957, 3.95657
5.24607, 5.01315, 1.96018, 3.98943
2.95174, 0.000000, 0.992616, 3.96748
2.98643, 3.00965, 5.9129, 8.0303
4.01235, 5.01319, 4.97262, 1.9809
4.02636, 1.97428, 4.05084, 7.97112
2.98295, 1.00594, 2.94459, 6.00685
1.98872, 6.9589, 3.97657, 2.98801
5.99031, 1.99455, 0.980344, 1.01009
1.00393, 5.02591, 4.97439, 2.99214
3.99573, 2.00619, 5.28442, 3.99026
4.99551, 0.000000, 1.99835, 0.000000
3.94944, 3.00856, 4.9529, 2.95816
5.27981, 3.99014, 4.93021, 1.99891
6.02677, 0.000000, 1.97523, 5.92329
1.99108, 5.01016, 2.96303, 1.00594
3.00688, 0.987754, 5.01016, 0.000000
5.9803, 2.98819, 5.94553, 4.01051
3.00126, 4.95171, 2.96773, 2.97021
3.97546, 1.9689, 2.96601, 3.01074
4.00029, 9.96019, 2.96344, 4.00492
0.000000, 1.01057, 4.98687, 1.97714
4.92754, 0.980526, 5.99795, 0.000000
2.9746, 7.05159, 2.99986, 2.98642
5.99208, 1.99435, 1.99772, 1.99596
0.999718, 4.99631, 1.9814, 2.97777
3.92744, 3.26705, 2.99824, 4.01053
4.97152, 1.99666, 3.02288, 2.99415
2.00526, 1.98253, 3.93484, 3.98577
1.99963, 0.997826, 2.92422, 5.93904
1.99467, 1.96934, 2.02089, 2.0103
4.17575, 5.92027, 2.94199, 4.00677
3.97341, 1.99996, 2.94678, 3.00428
5.02596, 2.98779, 1.97174, 4.8873
0.953149, 3.04205, 5.0402, 4.00209
2.98715, 2.00242, 5.97261, 3.97053
1.99008, 4.9952, 3.04761, 2.96396
0.000000, 3.9843, 5.00757, 3.01006
3.99796, 2.95459, 4.96854, 4.9588
3.95716, 3.00322, 9.98972, 4.96445
1.0027, 1.99, 1.00185, 2.02556
4.95415, 3.00411, 0.979421, 0.975574
1.0002, 0.998276, 3.96411, 4.01538
0.972822, 3.99068, 4.96562, 1.97733
2.99278, 4.95159, 2.99159, 0.999001
6.03834, 0.999736, 4.91653, 3.98588
6.96828, 6.06258, 5.0309, 3.02479
0.978338, 1.98733, 2.05841, 3.98596
0.996905, 0.987507, 0.000000, 7.93787
2.03976, 1.99366, 2.00196, 3.99003
1.99429, 3.03646, 0.987011, 3.00984
4.03336, 2.99425, 0.000000, 1.98917
1.15151, 4.01837, 1.98041, 4.94697
1.9801, 3.987, 0.99534, 0.000000
1.99874, 4.96829, 1.98236, 0.000000
1.9887, 2.16697, 4.94728, 1.01424
1.95854, 2.98772, 2.9966, 4.98609
2.00422, 4.02371, 4.93836, 0.980692
2.99719, 3.96532, 3.94801, 4.03842
5.00831, 2.99012, 1.9828, 2.9885
1.98883, 2.98101, 4.97444, 4.93741
4.95549, 2.99691, 3.09751, 1.01013
1.98611, 4.99925, 4.0009, 6.98696
0.000000, 1.02498, 6.00914, 3.0048
6.91252, 2.98679, 1.97531, 0.975574
2.00171, 2.98791, 2.96708, 2.97886
0.000000, 5.95796, 2.00336, 4.00439
1.99452, 2.03779, 2.9897, 1.96824
0.000000, 3.01732, 4.99157, 2.9759
4.90886, 0.991393, 3.96118, 1.01585
1.98336, 1.97676, 2.9951, 3.91753
0.989868, 1.00626, 0.962919, 2.00072
2.01729, 1.98971, 2.97717, 3.03441
4.02387, 1.00539, 0.000000, 4.94136
0.991819, 3.94785, 0.987343, 5.28798
1.02276, 2.97346, 4.28002, 3.9687
2.95967, 1.98457, 5.96029, 2.95708
3.99282, 1.98676, 3.95395, 2.97049
2.03231, 4.9518, 0.000000, 3.00939
3.96753, 1.0356, 1.94971, 1.99807
5.02688, 0.000000, 4.98366, 0.995346
1.97551, 0.997664, 0.000000, 4.00382
3.01585, 6.11885, 1.94637, 5.95877
4.01157, 1.9914, 4.00045, 5.93701
0.98536, 2.00654, 1.99793, 3.95697
0.000000, 3.98139, 6.02456, 3.96657
0.000000, 1.97576, 0.990536, 1.99906
3.93988, 0.989224, 0.996603, 3.98686
0.96579, 1.99918, 1.99637, 0.000000
3.98175, 4.96417, 0.998923, 2.95272
2.00075, 2.99663, 3.01199, 4.99221
1.98452, 4.00426, 1.00187, 2.96717
0.984537, 1.99514, 3.95305, 1.98878
2.00739, 3.99752, 2.98976, 0.980678
0.993375, 3.96661, 1.99808, 7.9727
1.99471, 2.01491, 1.9657, 3.9589
3.97383, 0.995842, 2.98144, 0.987519
3.99283, 1.99098, 0.976638, 4.92008
0.995215, 2.0066, 1.98683, 2.97499
2.9434, 0.988982, 4.96875, 0.993375
2.98398, 0.000000, 3.97581, 2.98898
1.99704, 0.969093, 2.95761, 0.000000
1.0237, 2.95619, 3.99196, 2.99663
3.99711, 5.00081, 3.99422, 3.97471
2.97062, 1.99312, 1.98575, 0.000000
2.97591, 0.000000, 3.03007, 0.997874
1.9667, 0.000000, 3.03837, 5.93824
0.993865, 4.96899, 2.01458, 1.02498
0.983873, 4.02413, 2.95515, 2.01477
0.000000, 1.9928, 2.02185, 3.03392
3.99685, 3.00555, 0.000000, 3.96467
2.00476, 2.99151, 6.97301, 0.987343
3.89688, 0.98511, 2.99693, 2.00289
2.03318, 4.01788, 2.00878, 3.00839
3.95167, 2.02549, 3.99, 2.00879
2.96169, 2.00021, 1.99246, 1.97563
2.99469, 3.01191, 2.01667, 1.98131
1.99139, 3.94057, 1.98822, 2.99715
3.97804, 3.01812, 1.01455, 0.990064
2.00171, 1.99221, 0.000000, 3.99415
1.97537, 0.993644, 3.99107, 0.000000
1.00443, 0.000000, 4.92799, 0.000000
1.98436, 0.000000, 3.9945, 2.9844
1.98297, 4.02961, 1.99674, 2.98779
2.96777, 2.02287, 0.98511, 3.96891
2.9813, 0.000000, 1.98413, 0.000000
1.99096, 3.00755, 1.00531, 3.00433
0.98946, 0.987343, 1.99772, 1.98577
1.99038, 0.989437, 0.991784, 2.95695
3.9936, 0.000000, 0.000000, 0.990595
2.98406, 4.0043, 0.992221, 1.00712
3.02354, 2.0127, 1.99281, 0.988455
1.99488, 3.94883, 0.996603, 0.999001
3.02098, 2.96684, 2.95619, 2.016
1.0237, 1.99037, 1.00982, 5.90839
0.990064, 1.00795, 0.000000, 1.9681
0.000000, 1.01492, 2.97889, 0.952998
1.97194, 4.93291, 0.989437, 1.95619
1.98279, 2.02666, 2.02318, 1.00024
2.02974, 0.986702, 1.9811, 1.99693
1.95021, 2.98422, 1.99623, 1.97933
4.92424, 1.95122, 1.01996, 1.96685
1.96012, 1.0032, 3.99261, 2.97571
0.988982, 6.0237, 1.98221, 0.000000
0.000000, 2.98234, 1.97387, 1.00438
4.90786, 1.99155, 1.99179, 3.04546
2.9869, 0.000000, 1.98947, 3.99081
1.98201, 1.02077, 2.97313, 0.000000
0.996913, 0.992196, 2.97843, 3.01675
3.92266, 0.000000, 1.99545, 1.00127
1.97875, 3.94138, 1.99534, 2.00852
2.963, 3.00322, 1.98122, 2.02137
0.993218, 3.00653, 1.00169, 5.06263
1.98583, 4.02089, 2.96504, 1.99869
0.000000, 4.00412, 0.000000, 0.994332
0.984318, 2.98707, 1.97641, 3.99035
4.93063, 4.98934, 0.997664, 0.000000
3.02252, 2.95601, 1.00144, 1.98158
2.9739, 3.96687, 0.960998, 0.968992
4.0071, 0.995066, 1.99217, 0.000000
2.01884, 1.9533, 5.94151, 1.99702
0.991942, 1.01147, 1.97591, 0.997859
1.97193, 1.003, 1.9997, 0.000000
1.3299, 5.95786, 3.05218, 2.97455
1.97508, 3.00394, 1.97323, 0.980384
1.97768, 1.0237, 1.00262, 3.95912
0.991792, 0.000000, 0.000000, 2.01782
3.95156, 3.00808, 4.95352, 4.0402
4.00163, 7.94843, 1.96162, 4.93329
0.997826, 0.987066, 2.01056, 1.95287
5.01723, 0.000000, 0.997087, 2.01284
5.05344, 3.98741, 0.992365, 0.000000
2.98337, 0.000000, 6.00369, 2.03425
0.000000, 1.00127, 2.96876, 2.0031
2.96739, 1.94512, 5.00859, 1.0085
0.98369, 1.99632, 0.000000, 1.00236
3.98965, 3.02362, 4.97658, 2.99207
0.000000, 0.987011, 0.000000, 2.94698
4.00091, 3.00207, 1.96094, 3.98229
3.01351, 3.96801, 2.0123, 3.94581
2.97585, 2.00283, 1.0056, 3.02328
3.01177, 0.000000, 0.988669, 3.98427
1.98915, 2.97216, 1.95649, 3.94837
3.02374, 3.99371, 1.95978, 2.97587
0.000000, 1.97758, 4.94246, 3.01935
1.0054, 1.98789, 1.00415, 1.00443
3.97022, 0.962919, 4.03697, 0.996231
0.974621, 0.000000, 2.92512, 3.98211
1.00376, 2.02626, 0.000000, 2.01205
2.02199, 1.0152, 4.99521, 1.97991
2.96231, 1.00339, 0.000000, 2.97685
1.99549, 2.99476, 0.000000, 0.996913
1.99227, 4.90862, 2.98787, 1.99629
1.98303, 2.96161, 0.000000, 0.988274
0.997232, 0.97895, 2.99392, 1.99647
2.92955, 2.98585, 0.996003, 3.97755
5.01372, 2.96521, 1.01147, 2.99146
1.98057, 1.98843, 5.96902, 4.00474
3.99609, 3.98994, 3.95921, 0.993303
2.97283, 0.000000, 1.04701, 1.97306
1.99536, 3.97601, 1.99939, 2.00374
2.9658, 6.87312, 2.00165, 1.96944
0.000000, 2.98088, 1.9917, 2.9663
3.9715, 0.958476, 2.94105, 3.00292
2.98676, 5.02832, 1.98865, 1.00085
6.96051, 1.98569, 2.00345, 2.02078
2.0011, 1.01364, 4.01313, 1.00253
1.01777, 1.94777, 0.000000, 2.97146
1.99519, 2.98422, 1.99018, 0.000000
2.95913, 0.969501, 2.9623, 8.10388
1.94588, 0.989224, 1.95932, 1.0009
0.990698, 1.02008, 1.00393, 2.94854
1.97728, 0.986874, 0.982552, 0.994105
4.00321, 2.98094, 1.97425, 0.000000
2.98278, 3.01457, 1.95288, 4.95754
2.97668, 0.000000, 1.98545, 3.94986
4.99795, 0.000000, 3.01471, 0.975458
3.99485, 0.981625, 0.996603, 2.97862
3.96038, 1.996, 0.000000, 2.01429
3.95722, 2.98245, 2.13008, 2.95134
4.00225, 3.95946, 6.01243, 1.98861
4.01873, 0.994791, 2.94064, 3.00884
2.96898, 1.97171, 1.99804, 0.000000
5.91563, 3.00962, 4.99508, 1.97123
0.989868, 4.96343, 0.000000, 2.00598
6.99768, 1.95952, 2.9764, 0.000000
1.98315, 3.29486, 3.9736, 0.983507
0.991784, 1.97825, 4.04271, 1.00139
0.983545, 0.981646, 3.99292, 2.95183
5.98179, 1.0079, 4.9523, 1.97633
0.971961, 0.000000, 1.00602, 0.986178
1.98886, 0.984318, 1.991, 3.00398
1.00195, 2.97366, 2.95918, 3.93202
0.98199, 1.9969, 0.998445, 0.993958
1.01228, 1.00488, 0.987066, 0.000000
4.99959, 1.99422, 3.96658, 0.979151
2.95658, 2.02487, 0.000000, 1.96398
0.994354, 0.980692, 1.00761, 4.96806
0.993303, 2.96912, 2.03717, 3.97819
3.99834, 3.93124, 4.95938, 2.96993
3.01979, 4.91283, 2.00318, 0.991992
2.00594, 5.97464, 1.01223, 3.02465
4.01554, 2.03635, 1.00138, 3.97996
2.92601, 1.00168, 1.01277, 1.9872
1.01086, 2.01663, 4.98869, 1.00935
2.0251, 1.00074, 5.92563, 1.98838
0.000000, 3.96038, 1.96646, 0.977425
4.96139, 0.000000, 3.00089, 2.01641
1.94566, 0.988274, 2.9755, 0.990386
1.0166, 0.972546, 0.000000, 0.99925
1.01013, 1.01209, 3.9702, 1.01139
0.000000, 1.99393, 2.99803, 0.991992
1.98225, 1.97804, 0.994134, 0.000000
1.01009, 1.95451, 0.000000, 2.99568
1.99789, 3.01936, 1.00073, 1.01056
0.986126, 2.96638, 0.96579, 1.95426
2.99954, 0.000000, 2.01204, 4.95301
5.00712, 2.97019, 4.04142, 2.98961
3.00869, 1.99508, 2.98964, 3.94136
2.00592, 1.95193, 0.000000, 0.000000
0.99604, 0.979151, 2.98043, 3.9583
2.99551, 2.98873, 1.00138, 2.0209
1.00122, 2.96675, 4.00101, 3.00474
1.9912, 2.0016, 0.983507, 0.978338
1.98924, 2.98784, 0.000000, 2.97155
0.000000, 1.98269, 5.0016, 1.96573
3.97921, 0.995516, 0.984658, 4.9576
0.000000, 0.000000, 1.95093, 0.000000
2.00874, 0.000000, 1.00617, 1.98912
0.000000, 1.00896, 3.00118, 1.99704
2.96122, 6.97649, 0.000000, 3.96093
3.96789, 3.02336, 2.97769, 1.96867
0.000000, 0.000000, 7.90992, 0.000000
0.000000, 0.993142, 1.99318, 2.0038
6.89945, 2.00826, 2.9677, 2.99213
2.9827, 1.14269, 1.98282, 1.01753
0.000000, 1.99871, 0.989299, 4.00568
3.00719, 1.98984, 2.98319, 1.00253
0.962919, 1.98708, 2.01997, 1.98212
3.02754, 1.97885, 0.995864, 2.9639
2.01612, 1.02936, 3.0226, 1.97241
1.00382, 0.983592, 2.99824, 2.02683
1.96983, 1.03082, 0.000000, 0.999002
0.000000, 2.98155, 1.97326, 1.98727
0.984783, 1.96768, 0.992768, 6.90032
0.999617, 3.98843, 3.98518, 4.01727
0.000000, 0.000000, 2.98895, 2.98665
1.96636, 1.97462, 1.98905, 1.97528
0.000000, 0.000000, 5.95218, 1.00138
0.000000, 2.98391, 2.96516, 0.975574
0.000000, 0.989296, 1.98606, 0.997874
1.97817, 1.00195, 2.95808, 1.98986
3.97944, 2.99677, 3.00828, 1.00246
3.01571, 5.94195, 2.9878, 0.000000
0.998752, 0.981942, 0.000000, 1.99462
0.981772, 3.02235, 1.99967, 1.97645
0.000000, 2.96352, 0.99971, 0.990536
2.99834, 4.9329, 1.00552, 1.00127
3.9824, 0.990788, 0.999001, 0.000000
0.000000, 1.0018, 2.9845, 0.995167
1.00024, 0.000000, 1.97054, 1.00162
1.99061, 0.979388, 1.97255, 0.995516
1.01014, 0.999617, 4.97898, 1.04108
2.9412, 3.0125, 2.98459, 0.000000
1.99226, 1.97517, 1.01349, 1.01147
5.02705, 1.99451, 3.95414, 1.98775
1.98815, 2.96915, 2.96452, 3.96802
2.99651, 2.97954, 3.99113, 0.974123
3.96007, 0.000000, 0.981195, 0.989402
2.98874, 2.04594, 4.96028, 1.00186
3.99338, 0.990224, 2.01327, 2.97804
0.000000, 4.02599, 1.98518, 3.96182
1.02883, 1.9933, 0.000000, 2.94307
1.99808, 0.999736, 3.94373, 0.000000
1.98781, 3.95607, 0.000000, 4.9832
1.00368, 1.02638, 2.9681, 1.02883
0.000000, 0.000000, 1.97357, 4.9656
1.99577, 1.03093, 4.93158, 2.99254
3.97844, 1.99602, 3.9656, 4.96306
2.99989, 0.000000, 2.97978, 1.0056
0.991773, 0.000000, 2.01155, 1.99634
1.99416, 0.993218, 1.96887, 1.98855
3.03259, 0.992874, 0.987745, 3.97417
3.03805, 2.96655, 1.00186, 0.989105
1.96059, 3.00354, 0.971293, 3.9566
2.00416, 4.03314, 3.96728, 5.98063
5.02908, 1.9675, 1.98127, 0.982096
0.000000, 1.97723, 1.98721, 1.0056
0.991157, 3.99464, 2.0011, 3.99444
0.000000, 2.98426, 2.97136, 1.00626
3.98667, 2.00655, 1.97904, 1.99371
0.000000, 2.98918, 0.996003, 0.99065
2.9857, 0.000000, 5.95728, 2.98596
5.01869, 2.99009, 3.98593, 0.991784
2.9952, 3.01363, 5.00886, 4.00763
1.95539, 3.95741, 3.97247, 1.04108
3.0143, 4.98706, 1.96765, 2.98566
6.97321, 0.975458, 1.99641, 0.988982
0.989105, 2.98499, 4.02574, 4.92984
6.90689, 0.000000, 0.99036, 3.02818
2.99226, 2.97656, 4.97256, 3.97779
3.00188, 3.91909, 4.96109, 1.99437
1.0237, 2.01448, 3.95056, 1.968
4.97618, 2.97595, 2.01153, 0.993303
1.03093, 0.986126, 0.953149, 2.99545
1.99363, 2.94178, 2.01402, 0.000000
1.00168, 1.99178, 0.999406, 0.000000
2.00474, 2.02099, 2.01219, 3.01405
0.986178, 2.01391, 0.000000, 2.00043
0.980243, 0.000000, 1.0198, 0.000000
5.94445, 2.9678, 1.96745, 0.978305
0.000000, 4.95282, 1.01715, 1.99249
1.01495, 2.93826, 3.03852, 0.993958
2.96, 1.00488, 1.99405, 2.00501
0.000000, 0.99534, 2.99982, 0.000000
0.994791, 2.01032, 0.000000, 1.95377
0.979421, 2.00455, 1.99389, 3.95385
0.000000, 1.98721, 2.01923, 3.97669
0.000000, 2.97962, 1.99199, 2.9865
2.01122, 0.000000, 1.00538, 3.98556
0.000000, 0.000000, 0.990595, 0.000000
0.000000, 1.99816, 1.96793, 1.00914
1.98402, 5.96713, 2.00206, 3.01114
4.99957, 0.000000, 0.000000, 3.01466
2.00943, 0.995984, 2.98307, 1.03375
3.00939, 0.000000, 4.09221, 4.93623
2.00616, 2.00651, 1.00259, 3.01279
0.997965, 2.02176, 0.96579, 1.94713
0.972822, 2.95479, 5.0018, 0.000000
0.000000, 1.00216, 1.94009, 0.999481
1.01865, 0.979109, 3.97472, 3.96343
3.93073, 0.999001, 0.9907, 3.98568
1.00594, 1.00185, 3.97969, 2.97698
0.986181, 2.97951, 0.958476, 0.000000
4.00931, 0.000000, 2.00412, 0.968198
3.98357, 0.989299, 0.979421, 0.979109
0.000000, 3.97712, 1.9962, 2.00573
3.99074, 3.96339, 3.95509, 2.97879
0.986126, 3.00184, 2.02793, 1.96761
1.98114, 0.000000, 4.95787, 2.95987
0.000000, 0.992963, 0.984871, 5.97715
1.00455, 4.94612, 1.94232, 1.99596
0.98902, 2.97448, 0.000000, 0.999808
0.000000, 2.95519, 3.03521, 0.000000
1.98755, 2.00191, 3.98149, 3.9968
0.974123, 4.00816, 0.977735, 0.984537
0.983712, 1.99179, 1.99975, 1.98487
0.000000, 0.988369, 1.98382, 0.991819
0.000000, 2.00564, 3.97929, 3.00631
0.000000, 0.000000, 1.03117, 2.97052
0.996544, 0.99354, 1.98216, 4.94705
1.96513, 4.95453, 7.93729, 4.97492
0.984861, 0.972822, 2.00206, 0.983545
1.96307, 3.02569, 0.000000, 3.92915
2.00784, 1.9666, 5.00747, 4.98328
1.96795, 0.998276, 3.98545, 0.991413
0.000000, 3.92959, 2.0246, 0.000000
4.01315, 2.00084, 1.98487, 0.994791
0.000000, 0.000000, 0.000000, 3.97369
2.00968, 1.93603, 0.974621, 0.983918
0.999444, 1.00007, 4.91783, 0.000000
2.01321, 1.98549, 4.99117, 1.97969
0.982552, 3.96294, 0.952998, 0.975458
4.99763, 3.0264, 0.975574, 3.96537
2.02718, 0.988021, 0.986464, 1.99337
4.97978, 1.0063, 2.95767, 0.000000
1.97305, 1.9795, 0.000000, 3.00047
1.00651, 2.00159, 2.95257, 5.02733
0.99257, 2.02791, 0.962919, 1.02013
1.96299, 1.98859, 2.00118, 0.983592
3.01021, 1.99367, 2.95681, 1.98232
1.0284, 0.000000, 0.000000, 2.02688
0.990788, 0.000000, 0.971069, 1.9852
2.00897, 2.95662, 2.05028, 3.14831
1.96106, 4.99237, 1.00505, 2.01139
0.000000, 2.00803, 5.07268, 1.00552
2.99928, 0.976638, 0.983122, 0.996544
4.95884, 3.01525, 1.00387, 4.99724
1.97863, 0.987078, 0.000000, 0.976204
0.999481, 1.003, 3.00873, 4.01321
1.93058, 3.98309, 1.98533, 1.97066
1.96686, 2.0103, 1.98009, 0.986274
1.96718, 3.99332, 2.95663, 3.9567
1.9768, 1.97446, 2.00793, 1.98584
2.01571, 1.97993, 0.000000, 0.000000
1.98565, 4.97863, 0.000000, 0.000000
3.94342, 3.97042, 0.975458, 3.02174
2.0071, 4.97324, 2.99996, 0.000000
0.952998, 2.005, 2.0137, 1.01557
3.01028, 0.992963, 1.99284, 3.9568
0.993958, 4.96678, 1.96872, 7.94517
2.97803, 1.99523, 0.000000, 2.99665
0.000000, 0.000000, 1.99249, 0.983888
3.96252, 1.97341, 2.9761, 3.96885
0.973592, 2.99019, 5.02798, 1.99289
4.97202, 0.000000, 0.971069, 2.02189
0.999008, 0.000000, 0.994511, 2.01625
0.984978, 0.000000, 2.97569, 3.01736
2.95769, 0.995528, 1.96967, 0.000000
1.02859, 0.000000, 0.983988, 1.96591
0.980372, 1.98399, 0.000000, 1.0002
6.00208, 2.99664, 0.000000, 1.9691
1.97122, 0.000000, 0.995433, 1.97493
3.97512, 1.97995, 3.97362, 2.00792
1.00602, 0.000000, 0.000000, 5.9311
0.993811, 3.97613, 0.997463, 1.95882
0.989224, 2.94217, 3.0247, 4.00646
3.97431, 3.97026, 1.00265, 0.978305
0.98511, 4.95629, 2.9925, 0.995433
1.98682, 4.05968, 0.989299, 1.97425
2.01882, 0.000000, 3.00949, 0.978133
4.93142, 2.98186, 1.01009, 1.99107
0.997965, 1.99212, 0.000000, 2.95083
1.00099, 4.99671, 0.000000, 2.94917
1.98698, 2.01287, 0.000000, 1.0166
3.96256, 1.00097, 0.980243, 0.000000
1.00866, 0.991992, 2.99149, 0.000000
1.95896, 2.01819, 1.99372, 4.96034
0.000000, 1.96126, 1.03082, 3.01209
3.01937, 3.94814, 0.992196, 2.01892
2.01756, 5.04458, 2.01508, 1.01557
1.02559, 2.9812, 2.95789, 3.96005
1.99226, 2.0134, 4.02326, 0.000000
1.02828, 3.97915, 5.97512, 2.99278
0.982541, 2.98256, 0.987519, 1.97204
3.00892, 0.000000, 0.99354, 0.000000
0.000000, 3.95541, 2.00486, 1.96346
2.99775, 1.00982, 2.98579, 2.97124
3.95781, 0.998445, 1.99079, 0.000000
3.00075, 0.995528, 1.98927, 3.96969
2.98247, 0.000000, 1.99434, 1.96853
1.00393, 4.96112, 1.00712, 2.00158
0.000000, 1.98512, 3.9922, 2.96579
0.000000, 1.02508, 1.9869, 0.000000
3.05341, 1.97029, 2.98769, 4.96044
0.982887, 2.05854, 2.00278, 6.00081
6.00809, 0.98982, 1.98741, 1.98362
4.98609, 1.99897, 3.0452, 5.05274
1.00602, 1.99595, 3.99982, 1.98794
0.992786, 1.98887, 0.996003, 0.998048
0.994011, 0.989894, 4.96903, 3.04032
1.99116, 1.99473, 1.98416, 2.01211
3.98142, 3.05715, 1.97912, 3.00471
0.994178, 0.000000, 0.996947, 2.01526
2.98396, 3.99158, 1.97795, 3.00763
2.99011, 0.98199, 1.95657, 4.9916
0.992426, 1.00216, 0.995017, 0.000000
0.000000, 2.9663, 2.99008, 0.98114
2.96917, 1.99925, 1.99889, 2.01357
1.94116, 2.96621, 1.00776, 5.9679
3.01366, 1.96229, 1.97616, 0.000000
0.000000, 1.94486, 2.9445, 1.95376
6.94899, 4.0101, 0.000000, 0.997463
1.98255, 0.99122, 0.983988, 1.99114
0.962919, 2.98328, 1.97281, 5.01831
0.98536, 0.99926, 2.01299, 1.97929
1.99452, 0.997651, 4.99582, 0.986937
4.05315, 2.99571, 0.991992, 4.03048
1.97188, 0.000000, 0.995916, 2.00531
1.03117, 0.000000, 0.977425, 2.98089
1.00502, 1.96097, 4.99961, 0.000000
1.97009, 4.97508, 2.94261, 0.995346
4.00409, 5.96484, 3.93182, 0.000000
0.99257, 2.92655, 1.98236, 6.92251
2.98051, 0.000000, 1.00139, 0.000000
0.000000, 1.00015, 0.990698, 0.000000
1.01364, 2.02966, 4.92632, 2.98483
2.97358, 4.96302, 2.9896, 1.9823
5.01338, 1.0078, 0.981861, 0.000000
2.99586, 1.01173, 2.00575, 0.000000
3.96466, 2.96149, 3.01681, 2.96891
2.98534, 3.00891, 0.000000, 1.0027
0.000000, 0.000000, 0.99926, 3.98982
1.99121, 3.99612, 2.99958, 1.97752
0.988941, 0.993218, 0.997664, 3.96396
0.000000, 0.976707, 0.985895, 1.98586
1.00886, 4.02509, 0.969093, 1.03063
0.99534, 0.000000, 1.98236, 2.98433
0.971961, 2.93058, 0.995346, 3.94127
5.03146, 3.12124, 1.98912, 0.993303
0.99604, 0.98268, 1.99082, 3.97579
0.000000, 2.0328, 0.979394, 4.90968
1.98711, 4.98969, 2.00873, 1.00478
2.99733, 5.96723, 0.000000, 2.94667
2.04116, 0.976707, 1.97443, 2.01228
0.984347, 0.980243, 0.994791, 2.99416
0.000000, 1.01164, 0.996603, 1.03082
3.0002, 3.94941, 4.97768, 4.94202
3.02558, 0.000000, 1.98929, 0.000000
0.000000, 4.00412, 2.04095, 1.02859
0.986472, 2.96762, 1.98088, 0.982224
2.0247, 2.98487, 0.000000, 0.000000
3.94027, 0.97895, 5.01926, 0.000000
0.000000, 4.00026, 1.98783, 1.98661
3.966, 3.99041, 3.00545, 3.00105
0.982065, 0.000000, 0.000000, 3.99782
1.01013, 1.3299, 4.03263, 2.95746
3.94683, 0.998327, 1.99014, 0.989224
0.983592, 3.98563, 0.997353, 1.01008
2.94909
*END

*EOF
