*TYPE		=  Raw
*CLASS		=  ASCII CLASS
*SAMPLE		=  A59
*COMMENT	=   
*FNAME		=  A59_2thetaomega_2θ_ω.asc
*DATE		=  13-Jun-19 16:08

*GROUP_COUNT	=  1
*GONIO		=  SmartLab(In-plane), 0.000000
*ATTACHMENT	=  χφZクレードル
*ASC		=  0, 0, 0.000000, 0.000000
*I_MONOCHRO	=  Ge(220)x2, 0.000000
*FILTER		=  None
*C_MONOCHRO	=  No_unit, 0.000000
*SLIT_NAME	=  0, 入射スリット
*SLIT_NAME	=  1, 受光スリット1
*SLIT_NAME	=  2, 受光スリット2
*COUNTER	=  HyPix 3000(H), 0
*POS_FORMAT	=  0
*SCAN_AXIS	=  2Theta/Omega
*MEAS_MODE	=  Continuous Scanning
*TARGET		=  29
*XRAY_CHAR	=  K-ALPHA1
*WAVE_LENGTH1	=  1.54059
*WAVE_LENGTH2	=  1.54441
*THICKNESS	=  0, 0.000000
*MU		=  0, 0.000000
*SCAN_MODE	=  2Theta/Omega
*SPEED_DIM	=  sec./step
*XUNIT		=  deg.
*YUNIT		=  counts
*SCALE_MODE	=  1
*REP_COUNT	=  0
*SE_COUNT	=  0
*STD_MATERIAL	=  Unknown, Unknown, 0.000000, 0.000000, 0.000000, 0.000000, 0.000000, 0.000000
*LATT_CONS	=  0, Unknown, Unknown, 0.000000, 0.000000, 0.000000, 0.000000, 0.000000, 0.000000
*SEC_COUNT	=  1
*TSPEC_SIZE	=  0
*EXTRA_SIZE	=  0
*MEMO		=   

*BEGIN
*GROUP		=  0
*START		=  20
*STOP		=  90
*STEP		=  0.01
*OFFSET		=  0.000000
*SPEED		=  0.196312
*SLIT_SPEC	=  0, 0.500mm, 0.5, 0.000000
*SLIT_SPEC	=  1, 0.500mm, 0.5, 0.000000
*SLIT_SPEC	=  2, 0.500mm, 0.5, 0.000000
*KV		=  45
*MA		=  200
*LOW		=  0.000000
*HIGH		=  0.000000
*CTEMPER	=  0, 0.000000
*CTEMPER	=  1, 0.000000
*CTEMPER	=  2, 0.000000
*PAREX		=  0, 0.000000
*PAREX		=  1, 0.000000
*PAREX		=  2, 0.000000
*PAREX		=  3, 0.000000
*PAREX		=  4, 0.000000
*PAREX		=  5, 0.000000
*PAREX		=  6, 0.000000
*PAREX		=  7, 0.000000
*PAREX		=  8, 0.000000
*PAREX		=  9, 0.000000
*PAREX		=  10, 0.000000
*PAREX		=  11, 0.000000
*PAREX		=  12, 0.000000
*PAREX		=  13, 0.000000
*PAREX		=  14, 0.000000
*PAREX		=  15, 0.000000
*FULL_SCALE	=  1616736.8
*INDEX		=  0, 0, 0
*COUNT		=  7001
0.000000, 1.99566, 4.04265, 1.00139
0.991413, 4.93996, 0.982552, 2.02986
0.985255, 0.986464, 3.95057, 3.96591
6.01226, 1.97864, 6.00384, 2.96704
4.0098, 4.96584, 5.02918, 0.000000
4.04142, 3.95542, 2.99467, 2.99368
3.99992, 0.962919, 1.98947, 2.99341
2.99427, 1.99065, 2.96419, 1.97764
0.996403, 2.01069, 5.98064, 1.99939
1.01557, 5.91616, 3.95884, 6.96001
4.02985, 2.99369, 4.99174, 0.978662
0.970122, 2.97972, 2.98018, 0.986062
5.96375, 2.98204, 0.995864, 1.99213
0.000000, 2.96531, 5.00595, 1.0018
4.98377, 2.00797, 3.97564, 2.98487
1.98591, 2.97001, 3.95132, 2.94783
2.93357, 0.984318, 1.98657, 3.03497
3.98538, 2.94116, 1.01345, 3.90802
0.995984, 4.98244, 4.99325, 1.00216
2.00486, 3.98218, 5.96446, 5.02159
3.969, 0.995524, 6.96847, 5.98722
1.00488, 2.95552, 0.000000, 0.992768
2.97264, 0.000000, 3.98817, 4.0116
1.98947, 1.99102, 0.000000, 1.99517
1.97682, 2.92908, 0.952998, 2.96943
2.03557, 0.000000, 0.000000, 3.99038
3.98432, 0.979394, 1.99731, 3.96514
0.000000, 5.03408, 0.000000, 0.000000
2.00892, 2.94178, 2.96226, 0.967456
1.95226, 2.99062, 0.000000, 0.991595
0.989402, 2.95893, 2.96256, 2.99265
0.977416, 2.98546, 1.98508, 1.99457
0.983988, 1.98186, 2.96264, 4.0067
5.97496, 2.00566, 0.000000, 1.97178
3.99628, 0.000000, 1.99872, 4.01504
5.97842, 0.973702, 0.000000, 0.987345
4.96454, 2.94695, 1.01936, 3.99065
2.98592, 3.00599, 4.00422, 8.93606
2.93281, 2.02783, 5.94465, 2.9349
3.0108, 1.96289, 0.989299, 1.98892
2.95858, 2.98305, 0.000000, 6.96845
4.91412, 3.96517, 4.94789, 3.96081
0.986472, 2.97747, 3.97682, 1.95998
0.97201, 4.95881, 0.992221, 0.000000
2.94941, 1.96314, 1.00085, 1.9679
2.98568, 2.98154, 0.000000, 3.95847
3.97484, 1.9709, 1.97057, 0.985326
1.98668, 2.00239, 2.97415, 6.92384
2.99293, 2.9662, 2.97629, 3.95829
5.97007, 1.9896, 2.96986, 4.89665
3.98789, 6.92845, 2.00283, 1.95468
4.0009, 3.93937, 1.00917, 1.99853
3.9973, 0.970122, 1.01147, 4.99514
1.98876, 1.0179, 4.95598, 0.997814
2.02311, 6.00783, 3.02576, 3.00648
3.99605, 2.0016, 2.93371, 2.02012
1.0284, 3.99961, 4.98475, 4.97982
3.93418, 0.992768, 0.975458, 2.98021
4.95812, 2.9936, 2.05821, 2.97452
4.96935, 3.97609, 2.98465, 1.99551
0.982887, 3.9754, 5.00905, 1.98576
0.982887, 2.96907, 2.994, 5.02406
3.94768, 2.99941, 4.95379, 4.99869
1.96808, 2.98337, 3.99787, 2.9871
0.997859, 1.97188, 1.96274, 2.00296
3.9796, 2.03507, 1.98715, 2.9702
4.96497, 4.00838, 1.99468, 1.02997
0.000000, 1.0092, 2.0487, 5.94718
0.987034, 2.97752, 0.986329, 0.000000
0.000000, 1.00658, 1.98719, 2.95494
1.96746, 0.988162, 3.04044, 5.97143
1.97308, 4.95489, 1.94804, 4.95164
1.99426, 0.996462, 0.987345, 4.00323
0.994706, 2.98168, 3.95881, 0.986874
3.01003, 2.94012, 0.000000, 2.9826
3.97213, 4.9565, 3.99511, 3.98967
5.95085, 1.96126, 1.01774, 1.98657
4.02891, 3.98185, 4.98791, 2.98381
4.98302, 3.97942, 0.997874, 0.975458
4.98055, 2.95102, 5.00062, 3.01212
0.998603, 7.97699, 1.98165, 3.97651
4.96222, 1.97766, 4.92831, 3.0188
0.000000, 0.000000, 1.0092, 1.98129
0.991784, 1.04108, 1.99617, 0.987066
0.000000, 1.97151, 3.99796, 1.97581
3.92949, 2.99669, 3.96113, 3.02634
1.99016, 2.99729, 5.02916, 4.95532
2.98049, 3.98507, 0.986489, 2.97137
2.99884, 0.975574, 1.98059, 4.96419
2.96845, 0.993737, 1.99992, 0.992221
1.00884, 4.96645, 0.997463, 2.94428
5.04304, 2.96084, 2.00078, 3.97928
4.01774, 1.96663, 1.95902, 4.97975
6.93528, 0.962919, 3.00404, 1.98304
1.97818, 3.98867, 3.95985, 1.9813
0.994781, 3.95029, 0.995346, 3.98332
3.0036, 2.02018, 5.02496, 2.97625
4.91585, 2.97871, 3.95093, 4.9471
4.94508, 0.995984, 5.00056, 5.01153
3.99777, 0.998545, 2.98263, 3.97797
4.96568, 4.96325, 1.97247, 2.95193
3.00645, 2.00389, 2.00077, 6.01913
7.03106, 6.92562, 1.97247, 3.02071
1.99483, 4.94914, 2.96997, 2.98622
3.94385, 1.01209, 3.98364, 1.99328
4.97273, 0.000000, 3.99086, 2.97418
3.96615, 4.96397, 4.99085, 4.02935
5.02301, 3.0222, 5.00318, 0.000000
1.99505, 2.95425, 0.98897, 2.06258
4.9841, 1.00776, 3.04021, 1.9915
0.983873, 3.97233, 2.98851, 0.997475
0.99534, 2.01107, 4.03895, 4.02171
4.94466, 0.989105, 0.996913, 3.95031
3.96813, 3.99792, 2.0075, 3.94661
3.0035, 2.01119, 4.98269, 3.9907
0.962919, 0.986178, 3.96443, 3.98019
2.02034, 2.97266, 1.00786, 3.99053
2.94376, 3.98021, 2.97249, 4.92763
1.97436, 0.971559, 5.04718, 2.95891
0.971559, 3.00123, 5.95245, 0.978242
6.9803, 2.97894, 1.00329, 1.98837
1.99, 0.999481, 6.02785, 0.993865
1.98077, 3.94445, 3.99526, 3.95952
0.000000, 0.986583, 0.983507, 7.91365
1.99634, 2.98534, 7.00477, 3.00993
1.0019, 2.97967, 2.97449, 2.02497
3.99484, 4.98486, 4.97153, 4.95718
0.000000, 6.00474, 2.9862, 2.97399
2.00707, 0.981195, 1.99939, 1.97388
2.00199, 1.99724, 1.00716, 4.93822
1.98314, 1.96149, 1.99998, 6.90705
0.000000, 4.97685, 0.000000, 3.99284
5.9475, 2.98001, 0.000000, 1.00005
3.92429, 1.95414, 1.00259, 1.95986
1.95922, 4.01775, 1.99738, 2.01593
2.9326, 1.97942, 1.99466, 4.94827
4.99569, 2.99502, 4.00068, 2.96457
3.97702, 1.0054, 1.99551, 4.99266
4.97816, 2.02146, 0.000000, 3.99273
1.98024, 3.97767, 1.00451, 3.97201
5.97931, 2.01891, 5.00662, 2.98293
3.95049, 2.96853, 0.979151, 2.96398
2.01722, 4.9522, 3.96778, 5.03864
3.01432, 3.03259, 4.00347, 2.98772
0.989273, 2.00722, 1.9764, 4.93762
0.988588, 3.96811, 1.0063, 2.98035
6.06273, 3.97642, 2.98942, 1.00626
6.99397, 0.995072, 4.0237, 0.000000
3.97798, 2.97046, 0.000000, 5.92442
2.95631, 3.02592, 3.0044, 2.97281
3.96858, 1.9983, 1.99363, 4.96287
3.03487, 5.89585, 0.992963, 4.04189
2.98673, 4.98198, 6.95997, 1.99411
3.02996, 0.000000, 3.9985, 0.975458
1.99988, 1.97789, 4.00659, 4.99138
1.96335, 3.94019, 4.95734, 1.03082
4.97153, 3.97388, 1.98274, 1.98959
1.99132, 3.99059, 4.9392, 2.96831
5.02371, 0.984658, 0.997094, 2.95523
0.99354, 2.97182, 0.979151, 4.95027
1.99558, 6.02933, 3.98371, 3.00533
2.97455, 0.997087, 1.02859, 4.9877
5.00984, 3.99666, 3.99495, 2.92968
2.96929, 2.97272, 1.01147, 1.00377
2.00079, 6.90308, 2.9844, 2.02928
2.98749, 4.94423, 1.98879, 2.0047
0.962919, 3.91124, 2.95962, 1.99572
4.96926, 0.000000, 3.97953, 3.02372
4.95853, 1.97211, 1.97219, 3.96082
1.97867, 3.0216, 4.93, 1.96594
1.97706, 1.96506, 4.94035, 3.02009
4.95523, 2.01468, 3.98, 4.94076
2.99303, 0.994888, 0.000000, 2.9636
3.95124, 1.98554, 2.98369, 0.983988
0.987895, 11.9197, 2.97853, 2.99726
2.98815, 4.96871, 1.9747, 2.95562
3.04089, 2.98456, 3.9863, 1.98219
4.9476, 1.00144, 3.96813, 3.96841
4.94592, 4.00555, 1.00706, 6.9855
2.96662, 2.97904, 2.9663, 4.02082
3.94125, 0.999001, 2.02756, 3.01391
1.97579, 2.99329, 2.96602, 5.96985
1.99445, 2.97777, 1.02767, 5.02271
0.962919, 2.93264, 1.97317, 2.97226
2.00694, 2.99019, 1.9856, 2.98926
5.91516, 4.01577, 3.9699, 1.01389
3.02716, 8.87953, 3.98845, 2.95164
4.99409, 4.95467, 5.97704, 3.94542
5.9692, 4.99144, 3.97961, 3.96887
2.96756, 3.97028, 4.97337, 5.01317
2.96793, 0.000000, 3.92987, 3.02399
5.99258, 3.97646, 0.993326, 2.97014
2.95776, 3.01176, 4.96003, 3.02048
2.97292, 6.99888, 2.00191, 6.9884
3.01461, 2.04704, 6.98811, 1.01345
3.93041, 2.02843, 4.97062, 3.97715
1.99867, 4.00514, 5.95749, 5.00581
3.96502, 2.99334, 2.9726, 4.00598
4.99862, 4.96414, 3.00545, 0.000000
5.02402, 2.98632, 1.97564, 3.98499
7.97144, 2.9737, 3.97305, 2.99433
0.000000, 4.94599, 3.97489, 1.97944
2.00839, 3.96855, 2.01333, 3.95694
1.00015, 2.97842, 1.96493, 4.99679
5.97721, 7.97622, 1.95659, 3.95494
4.03363, 2.9718, 5.0374, 2.01372
6.96683, 4.01419, 4.02793, 1.97156
1.97699, 1.9797, 3.96806, 6.94231
2.99374, 2.99191, 2.98917, 2.98317
3.97869, 9.02177, 4.94421, 5.97979
3.94706, 1.00377, 0.000000, 2.9729
4.96678, 3.96908, 3.98907, 2.98221
3.92222, 2.99394, 2.99672, 0.993782
3.9728, 5.94878, 6.96022, 3.99645
2.94224, 3.95781, 0.000000, 2.99672
6.02817, 2.97979, 3.98244, 4.9771
2.99023, 1.99482, 5.96663, 5.89821
3.03106, 6.96769, 2.98519, 7.00165
3.00883, 2.02143, 2.94155, 0.991942
7.92441, 2.94405, 4.94741, 3.95228
1.98216, 2.96846, 1.00594, 2.962
5.95705, 3.97997, 3.95445, 5.93758
1.96923, 3.95857, 4.95245, 2.0021
3.01266, 4.99968, 4.95608, 5.00396
3.02296, 3.9871, 6.97147, 5.00257
2.98491, 2.13838, 3.9649, 2.95986
5.94769, 2.95444, 7.96842, 4.97563
5.95497, 11.9163, 2.95636, 1.98785
2.96929, 3.95361, 0.000000, 5.00395
2.91969, 2.96838, 7.00893, 4.96012
2.99366, 0.991992, 3.96237, 1.02498
2.99347, 4.9677, 1.98015, 3.96809
3.95214, 1.99335, 3.96217, 1.99911
8.98304, 3.95132, 4.04173, 5.95225
7.91453, 3.97835, 7.02407, 4.98699
4.95823, 5.98795, 5.95959, 3.94636
1.99911, 4.00286, 4.95269, 4.98656
6.21129, 2.00977, 1.99819, 2.98179
8.89918, 4.95115, 2.95856, 2.99109
6.01426, 3.94227, 4.95755, 3.02168
0.000000, 4.98127, 3.98784, 3.01285
2.98349, 5.98229, 0.000000, 4.96942
9.95051, 3.94118, 4.94533, 3.97454
4.09314, 3.9684, 7.00438, 3.92794
5.9756, 3.99164, 4.9826, 7.91672
2.99601, 7.02159, 5.00043, 7.17681
5.97244, 2.98389, 3.93854, 5.89976
3.93249, 0.000000, 4.96546, 9.02568
6.95144, 5.96112, 2.97123, 3.958
7.92453, 3.96482, 5.98533, 6.98248
5.98848, 3.983, 5.94492, 6.95113
6.01652, 2.98289, 3.94854, 6.90218
6.02611, 6.96819, 5.96769, 7.98781
7.89767, 10.9471, 7.93026, 7.93897
2.96081, 8.93884, 6.98167, 6.9875
4.92243, 9.97551, 3.95359, 6.99752
6.8904, 7.08285, 4.94643, 5.94904
7.03384, 7.85974, 9.96174, 4.01033
5.18093, 10.9727, 2.98632, 8.08341
10.9445, 8.15068, 10.8809, 8.98581
10.0992, 8.97884, 8.01241, 4.43021
14.8758, 5.92044, 13.8885, 12.8694
11.9732, 13.9065, 13.8765, 15.9492
14.9808, 14.9664, 7.14276, 10.9581
10.912, 10.0223, 8.14629, 16.2258
9.88371, 14.2151, 15.0056, 5.94503
8.9468, 8.97707, 11.0389, 9.90073
14.9898, 15.352, 16.8569, 12.8844
14.9347, 15.9655, 15.9434, 12.8689
14.9803, 14.0369, 14.9165, 27.811
15.0006, 24.8745, 20.9241, 25.8575
24.9532, 26.0319, 8.93228, 21.95
28.0015, 12.8721, 24.9473, 20.9907
34.8248, 29.9452, 40.6926, 32.1085
29.9589, 22.9934, 27.9542, 37.0337
36.2043, 47.6757, 39.0406, 46.8543
34.971, 44.9496, 39.7814, 49.7194
42.7048, 42.5757, 41.8977, 60.6759
54.0754, 53.457, 57.8914, 67.1129
86.8038, 69.8282, 78.1879, 74.6778
89.1426, 78.1334, 105.5, 80.6486
91.7332, 109.433, 105.974, 101.306
94.1388, 127.48, 103.663, 125.015
133.224, 115.963, 139.43, 136.327
142.73, 143.437, 176.907, 154.074
180.081, 188.011, 207.461, 193.358
215.883, 255.986, 249.716, 291.752
288.459, 318.881, 358.164, 339.017
369.156, 406.562, 409.463, 461.63
596.624, 680.545, 778.357, 978.867
1423.83, 3237.81, 9576.02, 16701.1
25682.3, 48669.2, 82217.7, 116239
170733, 213119, 247938, 264487
241441, 218678, 209763, 191908
145309, 106212, 79433.4, 58958.6
15085.3, 2568.85, 1050.74, 707.068
619.673, 450.529, 417.967, 287.546
221.693, 192.184, 168.091, 178.932
130.809, 133.136, 127.892, 98.9119
106.239, 83.1974, 109.808, 79.9846
78.0184, 69.8619, 64.8326, 58.1136
64.7912, 67.75, 69.4035, 52.5068
51.0176, 47.7753, 49.8509, 47.9645
43.8551, 41.8208, 33.0401, 40.7901
51.0877, 46.8366, 28.9077, 31.0575
29.0767, 27.2359, 34.8228, 28.8004
29.7475, 28.7552, 25.8274, 20.9336
24.9079, 22.9644, 26.8193, 15.969
20.1668, 13.9659, 17.2431, 22.9874
19.9406, 22.0913, 10.9208, 19.9252
18.8251, 12.0311, 22.075, 17.6784
15.9393, 18.9428, 9.94843, 14.884
15.0661, 12.1032, 17.0905, 16.0074
11.2612, 12.2731, 7.905, 14.0388
6.93552, 14.9422, 13.9604, 7.02215
11.121, 17.1385, 9.92114, 13.014
7.00079, 8.99929, 11.1197, 14.9954
8.99539, 16.0412, 8.97319, 8.98971
8.01905, 6.95262, 8.90337, 6.99822
5.99407, 12.0899, 5.96081, 5.97105
8.90875, 7.99058, 9.02033, 13.9849
7.96429, 9.01357, 5.00189, 9.03202
6.00806, 8.00998, 11.0667, 7.9045
10.3109, 6.05738, 6.02686, 6.95952
6.97479, 6.97856, 7.00243, 11.0011
6.95135, 8.00284, 11.9858, 11.9399
8.90778, 11.9948, 8.98505, 3.00104
6.94646, 12.9608, 4.92758, 5.96741
6.96176, 4.97302, 4.94928, 8.90069
7.02163, 7.02596, 10.8928, 4.00807
10.15, 6.99517, 5.9893, 6.91582
3.97114, 7.03157, 12.0546, 8.03459
3.95639, 10.0041, 4.11959, 2.95582
9.93245, 11.084, 10.1022, 5.03451
5.97105, 6.93787, 8.94834, 4.94873
8.01796, 1.9723, 1.99283, 4.00655
11.152, 4.96458, 5.97004, 8.94023
8.97692, 5.98862, 4.90989, 3.02073
7.99158, 4.00505, 4.29139, 3.00424
9.05894, 4.97491, 3.9709, 7.00464
3.99348, 10.9647, 4.99799, 3.98097
5.97148, 9.97496, 6.30291, 5.97318
6.96553, 3.99159, 4.05664, 5.95187
5.98567, 5.99442, 0.962919, 7.97581
4.9738, 4.99708, 2.00562, 4.93599
3.95544, 2.98823, 4.97534, 2.96872
3.02408, 3.01075, 7.02322, 1.98181
6.00629, 2.9726, 3.98745, 1.95747
6.87043, 6.90886, 5.95118, 4.0121
5.0458, 3.00146, 4.94953, 4.93523
4.99125, 3.98922, 6.98213, 5.97267
0.997826, 2.91492, 2.99629, 2.9676
8.9417, 2.98097, 6.04332, 0.988569
4.00328, 2.00083, 1.94938, 6.98571
8.96158, 0.000000, 7.96319, 4.9397
3.95414, 4.15142, 0.995842, 4.14577
4.95893, 10.9225, 5.99603, 8.97423
3.97673, 2.99141, 2.97536, 5.00953
4.91897, 2.95633, 7.9987, 3.93224
1.97557, 4.97294, 3.00206, 3.94241
4.96384, 4.37357, 1.96541, 2.93701
4.01759, 3.98633, 5.88957, 7.94555
2.93311, 3.01411, 3.01775, 1.97036
6.9771, 3.00138, 6.95701, 1.0085
4.99175, 5.93842, 3.0253, 4.94522
2.03635, 3.99574, 1.99851, 2.99486
5.01642, 2.00173, 4.98363, 8.01564
2.99359, 0.968992, 5.00683, 2.01351
4.94664, 1.97889, 2.97585, 3.01241
0.000000, 2.00891, 5.93529, 5.9866
2.9695, 3.96383, 9.90863, 3.97556
2.98439, 3.97025, 7.94843, 3.00286
0.000000, 1.98983, 2.98412, 6.91286
2.98287, 4.98235, 4.95173, 4.00419
2.9888, 6.96685, 4.94824, 0.981625
2.95321, 5.95694, 2.98289, 3.02666
3.98026, 5.9532, 3.93665, 1.99217
4.98184, 0.000000, 2.98794, 6.95973
3.02178, 3.95615, 2.97943, 3.02628
1.99467, 8.00298, 2.97398, 4.01892
3.97287, 2.99336, 3.00191, 3.96113
2.00288, 2.9845, 8.99095, 4.97195
2.02511, 1.99719, 4.94378, 2.98744
5.96611, 3.98736, 3.99458, 0.952998
3.9861, 6.009, 1.98567, 4.01313
5.89829, 5.93187, 1.96022, 1.98417
3.92714, 3.98841, 3.96032, 2.99244
0.991784, 6.03179, 0.000000, 1.98601
4.00103, 3.93832, 3.97111, 2.98297
0.962919, 3.99386, 5.23761, 5.91373
2.01129, 2.97161, 3.01105, 3.9947
4.00774, 6.03817, 3.02635, 2.97292
3.95075, 0.988941, 2.99518, 1.97067
3.01368, 3.98303, 4.01485, 2.94479
1.95363, 4.03, 1.99405, 2.0053
4.08524, 2.96049, 2.01458, 4.97499
5.97219, 1.00024, 4.02101, 0.993218
6.02723, 4.9637, 3.98706, 3.94521
2.9935, 6.03901, 1.99476, 4.95944
4.99716, 3.94377, 0.976638, 4.97552
2.00214, 2.93123, 2.00864, 2.9816
1.99207, 2.98108, 3.99214, 1.98316
2.95631, 0.987343, 0.000000, 0.976638
1.96454, 3.00302, 4.96526, 3.97385
3.97619, 5.9614, 6.97891, 2.99421
0.000000, 2.00475, 1.00193, 5.90875
2.98509, 2.96341, 2.97204, 3.94215
2.00094, 3.99753, 0.994178, 0.989879
5.05116, 0.98369, 3.97874, 2.97805
1.00594, 3.03538, 7.93568, 7.96021
1.01013, 4.97421, 3.96307, 3.95664
5.97477, 1.99078, 1.98589, 0.000000
3.00037, 4.93205, 6.03586, 9.91206
3.0068, 2.95481, 1.99862, 1.03058
3.96141, 3.01809, 0.989879, 6.94232
2.00087, 6.92161, 3.02394, 5.03825
5.9494, 3.97743, 6.03125, 0.952998
0.997664, 3.02068, 3.03198, 2.98905
4.97112, 1.9878, 2.99034, 1.02276
5.02682, 2.97293, 6.93173, 3.99569
5.95577, 4.95176, 5.97015, 5.02289
3.95888, 2.96106, 3.97563, 5.98756
2.97566, 2.99388, 3.97546, 2.96064
0.98268, 1.99939, 1.97141, 2.98848
4.91363, 3.9852, 3.94811, 0.998658
5.97574, 1.9901, 2.99013, 2.96153
1.01147, 4.01236, 4.98889, 0.995433
1.01996, 0.988941, 4.03513, 6.95452
1.98465, 6.98309, 1.9884, 0.992416
4.93375, 2.00566, 3.05152, 5.04983
4.94572, 3.95874, 2.96794, 3.00377
1.95735, 2.97016, 0.989296, 5.01435
1.99169, 8.95565, 4.01444, 2.02087
2.98022, 2.98303, 4.01042, 3.98535
3.94855, 2.96821, 1.0063, 2.03864
2.99889, 3.01946, 6.90969, 4.97227
6.02286, 3.99369, 7.95631, 0.992416
6.00927, 2.97267, 1.99526, 0.985326
2.01724, 3.00112, 0.997094, 5.01129
0.973592, 4.99174, 5.98677, 5.93238
3.97877, 6.95175, 0.962919, 2.0576
3.95136, 0.000000, 2.98394, 3.00866
3.00037, 3.97063, 1.94913, 4.00308
2.02795, 3.9765, 1.99156, 3.00049
1.98932, 3.03947, 3.97636, 0.991968
1.97016, 4.89336, 3.04224, 3.95275
3.94425, 4.94168, 3.97857, 5.00516
3.9284, 5.01114, 5.95016, 4.91951
3.9683, 1.01936, 2.97324, 1.98985
4.95243, 1.94881, 3.90917, 3.99144
5.03948, 1.96746, 1.97954, 4.92994
4.94348, 0.000000, 5.91595, 1.97803
2.95281, 3.96305, 7.98491, 6.98111
1.98119, 4.98755, 3.99008, 0.000000
3.95605, 2.98292, 4.97719, 0.992768
3.02733, 4.97631, 4.98388, 1.99659
1.98838, 8.00445, 4.01134, 0.988732
0.988021, 0.000000, 3.01926, 0.992365
0.979394, 5.99191, 2.95279, 4.99575
0.997874, 6.89747, 1.9905, 0.997094
3.01686, 5.982, 5.95574, 6.92575
2.99153, 3.02176, 0.993375, 0.984871
1.00761, 3.98546, 7.04694, 4.00514
4.97166, 1.96571, 0.000000, 4.97881
3.00436, 4.00494, 3.96349, 1.00015
3.97109, 4.95362, 1.92214, 2.97875
1.98391, 4.0109, 2.99119, 1.97242
2.02025, 1.00207, 4.94739, 1.01009
3.99338, 2.92526, 1.98315, 4.97925
3.96342, 1.93324, 4.03865, 0.996603
3.95722, 4.97487, 4.96629, 1.00531
3.99362, 0.976754, 4.00111, 0.000000
0.978305, 1.98793, 2.00533, 1.00099
1.99246, 3.04644, 0.977425, 1.00207
6.99006, 0.984347, 2.96216, 0.988274
5.94267, 4.0091, 4.92745, 3.98366
6.01561, 4.94361, 1.97837, 4.00979
2.99739, 7.02605, 2.99117, 5.99031
0.000000, 3.98739, 2.99937, 5.0145
4.98227, 6.00381, 1.0078, 1.9789
4.91087, 4.94285, 2.00958, 1.99791
2.96054, 4.01674, 4.9564, 4.01516
1.9944, 0.985895, 6.91046, 1.99353
4.99999, 1.99616, 1.99117, 5.93769
2.98663, 4.04265, 4.96964, 1.99506
2.00419, 4.96093, 1.99495, 1.98668
0.990788, 4.94733, 3.94505, 2.98278
1.98323, 5.96929, 3.00698, 2.98175
7.9754, 3.96944, 3.94895, 1.99664
1.96683, 2.99185, 3.98371, 3.01486
1.97356, 2.97182, 4.9095, 1.9959
4.94508, 1.02077, 4.99181, 1.99804
4.95417, 1.99091, 0.000000, 2.99409
2.95595, 3.98102, 3.99796, 2.97602
2.98933, 3.99186, 1.95708, 6.05927
2.01134, 2.00091, 2.00663, 2.01453
4.93763, 2.97936, 1.94291, 1.98605
0.980006, 2.00395, 3.01901, 4.14663
3.00722, 5.95359, 3.97642, 1.00033
3.00872, 2.00031, 1.98595, 2.97861
1.97064, 3.99171, 1.98967, 2.93373
6.91014, 1.98705, 3.96879, 3.95343
3.92906, 2.96004, 2.97456, 1.97663
3.00165, 1.01345, 1.99822, 2.00997
1.99798, 2.03159, 2.98606, 4.01042
1.99093, 1.96859, 5.93789, 3.01168
7.9164, 0.962919, 2.98847, 5.92103
0.973451, 5.97898, 5.04455, 3.95644
1.97399, 4.99597, 0.975458, 1.98795
1.01139, 6.91917, 4.97432, 1.98376
1.04701, 0.993218, 0.000000, 2.01092
3.9721, 5.08256, 2.9864, 3.97483
1.01361, 0.000000, 2.9958, 2.97171
3.94621, 2.00044, 1.01487, 2.99774
2.99514, 0.980384, 2.02257, 3.99995
2.98588, 2.95896, 2.01434, 2.99763
2.99312, 1.00024, 0.978338, 3.99565
6.01855, 1.98889, 2.98076, 1.00099
0.989522, 5.97463, 0.998123, 2.97771
1.95577, 2.00005, 4.01402, 7.91694
3.02568, 3.96905, 3.99223, 2.9865
3.96204, 0.995864, 2.99016, 9.98395
2.92188, 4.01273, 1.96819, 3.96452
2.01218, 8.0084, 1.0019, 3.02522
5.03109, 2.95551, 1.00502, 0.988588
0.984658, 0.000000, 1.01147, 6.97292
3.96656, 1.99825, 5.00789, 3.96083
4.98117, 1.97612, 2.98988, 4.98489
2.9981, 0.999481, 3.95728, 2.95692
4.98589, 1.96498, 1.99386, 3.00952
3.92274, 1.98853, 0.978133, 1.97764
2.00597, 1.00476, 3.03845, 3.9775
3.9557, 1.99035, 5.99416, 1.99864
4.97687, 2.98839, 5.0427, 2.95973
1.02077, 4.00253, 3.9887, 5.00678
2.97169, 2.00417, 7.00106, 0.986874
3.98642, 3.01976, 3.00779, 1.97126
1.02936, 1.97449, 1.99433, 6.98141
0.000000, 4.92483, 0.983873, 4.91821
3.98949, 2.97854, 1.9789, 1.98682
3.92124, 1.99087, 2.96811, 3.99248
3.98072, 5.0123, 2.98069, 4.97473
4.92937, 0.994791, 4.98229, 1.04108
3.96185, 0.989402, 2.96039, 0.000000
2.98352, 1.96039, 5.9809, 3.94777
0.000000, 1.00162, 0.000000, 2.97724
0.996436, 6.94459, 7.91916, 4.94131
3.97795, 4.00516, 2.99614, 1.99668
5.05745, 0.000000, 5.89574, 4.96645
1.94055, 3.96772, 8.00079, 2.98994
2.99989, 0.993375, 1.98407, 0.978662
1.01296, 5.9863, 0.971961, 1.00712
2.95313, 4.95361, 4.97003, 3.00212
2.96608, 0.999617, 7.02068, 1.96542
0.988732, 6.97984, 3.99087, 2.00494
4.96187, 4.91601, 0.000000, 4.90161
3.00641, 4.00601, 4.95183, 0.992196
7.04153, 5.02836, 3.94856, 2.01341
0.000000, 4.94493, 3.00057, 2.03803
3.94507, 2.99842, 2.98892, 2.9478
4.99197, 1.99803, 6.92525, 0.000000
3.95192, 1.95677, 1.99677, 2.00514
4.9554, 5.9708, 0.976204, 2.98337
4.9796, 5.9253, 1.99368, 5.91957
0.992221, 1.98634, 1.99272, 4.92254
0.000000, 3.93712, 3.99017, 0.991784
2.99198, 2.95984, 0.998526, 2.01195
5.00496, 2.98398, 1.00478, 5.01235
1.99044, 0.98268, 2.95452, 1.98217
7.00154, 2.96686, 6.97426, 2.00043
2.98223, 0.991784, 2.99961, 2.98713
1.9842, 0.000000, 2.98672, 6.00275
1.01228, 4.96725, 5.01248, 3.96107
2.96647, 2.0136, 3.00067, 1.98848
4.9772, 3.99659, 1.94034, 4.93878
3.00032, 2.97982, 0.996403, 2.96024
4.00157, 0.978234, 3.9661, 6.94026
4.9949, 1.99858, 2.99307, 2.96786
2.04003, 7.97672, 2.02093, 2.98688
3.998, 2.98592, 2.99413, 1.00024
6.98086, 2.97865, 2.00017, 0.999617
4.94022, 5.04922, 0.985518, 1.02883
2.99011, 2.03038, 0.998923, 1.97373
1.95043, 4.00167, 3.01611, 2.97981
3.96876, 4.00772, 5.97701, 1.0085
2.9809, 2.9827, 4.9894, 3.05634
5.89039, 1.97143, 3.01016, 4.01959
6.00333, 2.94896, 3.96444, 2.02457
2.95022, 2.97234, 6.97441, 2.01195
2.03972, 3.98344, 3.03999, 2.04007
1.99584, 2.97208, 3.00755, 0.997826
5.92418, 7.89442, 4.95508, 3.99531
4.01599, 3.0134, 5.91171, 0.988818
4.97905, 3.0101, 4.99601, 3.00988
3.97299, 3.99007, 3.03425, 5.97669
5.93019, 2.95661, 5.01791, 6.96221
3.97546, 3.94277, 2.95238, 4.93324
6.93279, 4.00327, 4.03337, 1.02767
1.00024, 4.96546, 1.99448, 0.992221
2.99712, 7.97603, 5.91385, 5.98411
0.980312, 3.9589, 7.93754, 2.96021
5.98512, 2.99401, 4.99619, 8.9491
5.99722, 2.96075, 6.00558, 9.94982
3.96496, 5.95223, 8.96036, 6.07312
3.98277, 8.99444, 5.00943, 5.99532
5.003, 11.9678, 8.25017, 11.9239
13.9968, 9.86765, 15.9483, 13.9652
10.023, 9.96425, 15.9469, 11.925
17.0068, 14.933, 16.8742, 10.9439
14.0226, 13.9661, 16.8745, 18.9553
9.98018, 13.9478, 19.8315, 5.98233
12.9547, 11.008, 4.02145, 7.99097
8.97673, 8.06274, 13.9545, 4.01027
4.93935, 10.9076, 7.9688, 6.9369
1.98622, 5.93911, 4.92662, 1.99163
3.98501, 2.98063, 4.96788, 3.0039
9.91958, 2.97813, 1.97481, 5.00457
6.97397, 0.989299, 0.991968, 3.97123
5.02944, 1.98265, 4.01957, 3.97801
0.987345, 6.96456, 7.02146, 3.9991
1.99495, 2.96335, 1.98291, 3.00496
3.96121, 5.95727, 3.98286, 2.99616
6.91523, 4.97582, 3.96583, 5.99435
1.97961, 4.93875, 2.9348, 1.99231
0.988588, 4.94777, 2.98604, 5.98725
5.92486, 2.95359, 4.00434, 1.00278
1.97989, 3.9893, 2.97228, 1.98791
3.97901, 2.92714, 2.99122, 6.92452
4.00501, 2.954, 0.982377, 3.01823
1.97484, 4.93955, 5.93986, 1.99559
0.000000, 6.95788, 1.98027, 4.95397
2.00049, 3.0031, 1.99278, 1.983
5.06636, 1.00488, 0.978133, 2.95516
1.97084, 4.99723, 2.97883, 2.95816
2.99593, 2.96798, 1.96526, 5.98177
6.9669, 3.9739, 3.94517, 1.96589
4.96139, 4.96519, 0.988588, 7.96908
6.95584, 0.995842, 3.02537, 3.95163
0.976948, 5.98623, 5.98547, 3.99588
7.02669, 0.985136, 4.01624, 2.96419
3.95204, 7.86663, 3.9592, 2.97552
2.95449, 2.03243, 2.96972, 3.94602
2.97969, 3.00918, 1.99214, 3.95294
3.94483, 3.98542, 3.00255, 3.92282
3.95624, 7.98763, 2.02507, 3.00541
4.92947, 2.99768, 2.9606, 1.9654
0.996982, 1.98568, 4.99188, 1.01009
5.00286, 0.000000, 4.93601, 2.97959
4.99602, 2.01933, 4.93999, 0.991942
3.01823, 3.96548, 5.94061, 3.05125
4.01114, 1.00109, 2.98638, 1.04701
3.01231, 5.00048, 3.0425, 4.00269
3.99969, 2.001, 4.96128, 4.02795
1.99907, 5.99486, 4.96967, 2.95542
4.99489, 0.994961, 4.93344, 1.98517
0.989879, 1.97139, 2.95441, 5.99005
0.000000, 2.94376, 3.97254, 0.974123
2.0137, 4.9572, 6.95451, 6.91053
1.98331, 2.98048, 2.95466, 3.99793
2.97153, 0.978338, 1.95479, 4.01795
4.02194, 3.00701, 4.99831, 4.03259
2.01561, 4.98296, 3.02151, 4.01983
4.98871, 1.97353, 2.98841, 7.95167
1.97796, 4.98254, 2.02669, 3.96685
5.00676, 4.94326, 2.00778, 6.95438
2.98573, 6.01578, 1.99207, 2.97394
4.96122, 2.96974, 4.97374, 3.00098
1.00682, 4.94262, 5.96942, 4.00029
3.9087, 2.98846, 3.9529, 3.96163
0.961223, 2.00096, 3.94527, 1.97279
5.95765, 0.997664, 5.98996, 5.98093
6.98326, 3.94363, 1.99874, 0.968198
1.00455, 3.01186, 2.01878, 3.96942
2.97267, 2.00338, 4.94391, 2.98863
3.00856, 1.9996, 4.98133, 3.96748
0.989402, 6.98951, 3.95563, 3.01642
0.991792, 1.0018, 1.99831, 0.976638
6.09615, 1.99853, 3.96998, 4.95872
4.01433, 2.97866, 0.977416, 7.00572
0.987011, 2.99573, 4.97083, 3.95283
1.99484, 2.01892, 0.993782, 2.99434
2.97015, 1.96454, 1.98437, 0.984318
1.01013, 2.95298, 3.99382, 2.94913
5.96382, 3.95999, 2.99809, 3.01642
3.9814, 1.93758, 3.93094, 1.99487
5.9915, 3.9822, 4.99917, 2.00863
4.02194, 1.99273, 0.974621, 2.02574
2.98365, 3.96807, 2.04265, 2.99874
2.00154, 1.0018, 3.02095, 2.95783
2.96044, 4.96303, 1.9551, 4.95339
3.03228, 1.99213, 1.99427, 2.98337
1.99257, 3.96526, 5.94724, 3.89931
2.98052, 4.15915, 3.01329, 0.000000
1.94771, 2.99643, 4.9918, 3.98031
3.00696, 3.95562, 2.94872, 1.94733
4.99629, 1.9857, 4.9751, 3.91906
5.93464, 1.00451, 5.03711, 1.99569
5.04606, 5.99945, 2.99638, 5.95364
2.99354, 2.93356, 5.97603, 3.99787
2.95248, 2.95667, 3.98651, 4.93425
1.97433, 2.99373, 0.990595, 5.00167
5.98778, 2.0197, 3.95479, 2.01084
1.97155, 3.12238, 4.9524, 2.93589
3.96441, 5.98201, 0.000000, 4.97286
4.96616, 1.98437, 2.02292, 4.00423
6.00725, 2.97129, 2.95826, 6.01541
1.00488, 2.97947, 1.04701, 2.96149
5.99325, 1.00127, 4.00854, 2.95655
0.998923, 2.97608, 3.94225, 3.05641
1.01996, 0.995587, 2.99844, 7.9533
5.00226, 6.0016, 3.99545, 5.94038
4.96077, 6.89437, 3.93975, 0.000000
1.98811, 0.000000, 4.96342, 2.99061
3.98273, 1.00186, 3.98548, 4.9761
3.99101, 6.84214, 2.99052, 2.02797
3.00229, 5.00742, 3.94343, 4.97602
4.00602, 3.96542, 8.93625, 4.94063
3.9799, 3.97984, 3.0073, 2.00375
7.93626, 2.99547, 2.92604, 0.99354
3.00702, 4.01664, 5.00544, 4.96322
1.00538, 2.98523, 5.94971, 3.97292
2.96837, 4.95331, 1.00393, 3.96125
7.98848, 0.991992, 1.98368, 0.998101
7.03159, 8.02737, 0.000000, 3.97326
1.99087, 3.96015, 4.95457, 3.00564
2.00488, 2.00259, 4.97096, 3.98536
3.03377, 4.93684, 2.94807, 6.19489
6.00557, 3.97001, 8.0093, 4.99926
3.98107, 2.97602, 1.01147, 4.00106
1.00162, 3.02738, 2.92937, 6.99432
4.99617, 4.98541, 4.92902, 2.02117
5.00886, 3.9163, 4.95086, 2.9794
4.97037, 2.99103, 2.01739, 2.99779
2.97817, 2.97907, 1.96867, 4.9826
4.95574, 0.990224, 2.99473, 4.95635
4.99936, 2.94882, 4.93158, 4.99929
1.97763, 0.980692, 6.97, 3.98064
1.98734, 0.000000, 3.03377, 2.99653
3.00406, 4.97668, 1.99822, 1.01008
3.00587, 1.99966, 2.99292, 2.95784
3.01197, 7.00982, 4.03383, 1.01139
7.98876, 3.93036, 1.99534, 1.9643
2.98696, 3.9657, 1.98749, 1.95372
3.98467, 1.97692, 1.97661, 2.96786
2.95743, 0.996947, 2.98346, 3.96502
5.9106, 5.00716, 1.00401, 3.99708
2.95709, 1.99558, 3.96273, 1.96873
3.96841, 2.00825, 3.99456, 3.94118
1.00216, 5.96696, 5.02624, 2.94758
5.92043, 7.01783, 1.99194, 2.02691
1.99433, 0.000000, 0.000000, 2.95666
1.98719, 0.000000, 1.96501, 2.02112
2.97395, 2.98568, 4.97803, 2.02372
2.98461, 2.95205, 7.95332, 3.95773
4.00187, 5.87693, 4.0169, 2.9756
0.982377, 3.97188, 3.96585, 1.00539
2.97459, 4.99964, 1.01056, 3.97142
4.02187, 1.93063, 5.01897, 3.92945
4.89886, 5.00377, 0.979109, 6.88361
3.01664, 1.97939, 3.97582, 0.995346
2.96239, 1.99801, 1.95548, 2.99922
1.98103, 2.97992, 1.98269, 0.992221
2.05332, 4.95023, 6.97787, 2.97333
0.996773, 5.97221, 2.96897, 2.96335
2.95351, 2.9942, 6.96351, 2.01634
1.989, 0.994888, 0.000000, 2.96855
0.978305, 1.97107, 0.989224, 2.93353
1.0085, 1.00074, 3.94503, 2.97032
4.00562, 1.99491, 4.98451, 2.97009
4.94718, 2.98305, 2.95657, 1.00368
3.95676, 1.98685, 4.9262, 2.97597
3.955, 2.98217, 1.99787, 2.99246
0.978133, 5.94672, 3.0129, 5.96719
1.98464, 6.99533, 1.98422, 0.000000
3.94605, 3.97272, 2.0117, 2.95402
2.99068, 3.95762, 1.97082, 7.04507
2.97427, 5.99907, 4.98924, 2.9889
0.988968, 1.98241, 2.00174, 1.98171
0.989224, 7.01523, 2.97555, 0.000000
1.96208, 4.00363, 3.0013, 1.02008
5.0137, 4.99719, 5.98732, 1.98459
4.04326, 1.99429, 4.9754, 4.018
1.95966, 2.1391, 2.96477, 3.98927
1.00505, 0.998923, 2.95337, 4.02749
3.96947, 2.02839, 3.0158, 0.997094
0.968992, 3.99143, 3.93774, 2.95045
3.94701, 1.02824, 4.94225, 1.97633
0.000000, 2.00195, 3.95454, 2.9667
2.98765, 5.01664, 2.98809, 0.000000
6.01622, 5.91951, 4.95952, 0.000000
4.92624, 2.0118, 2.94502, 3.03411
5.00774, 3.93025, 0.991942, 3.98995
0.000000, 2.95961, 1.97669, 2.96988
2.96767, 3.98608, 5.02029, 6.95654
1.96702, 7.94689, 3.02862, 3.95539
1.94955, 2.97267, 4.9542, 5.93944
0.000000, 3.01167, 7.02142, 0.962919
4.02863, 5.91933, 5.99622, 3.96983
0.000000, 2.95805, 3.97588, 4.01765
4.99897, 4.98761, 3.99893, 5.92998
3.00083, 2.99612, 3.95442, 1.99765
6.93413, 3.97376, 1.98524, 6.97875
4.9784, 1.02261, 2.98181, 3.03864
0.99425, 0.000000, 8.9748, 0.000000
3.96512, 0.993958, 6.90607, 3.01486
4.01566, 3.98479, 1.01009, 0.995809
5.01418, 2.95608, 4.99203, 1.9909
1.99953, 4.00723, 1.95752, 4.96732
4.97542, 0.993303, 1.93781, 7.95005
3.99692, 3.97005, 2.97288, 3.90566
0.999736, 3.01766, 3.95331, 4.94085
6.91999, 6.94272, 3.97542, 3.00126
1.00438, 2.96153, 4.00648, 3.93586
4.98134, 1.9909, 1.98709, 2.01171
0.989949, 2.97975, 7.00173, 5.00488
0.991444, 2.00234, 0.978133, 2.98343
4.97425, 0.000000, 2.97201, 2.02563
3.97896, 4.95158, 3.95632, 3.94808
4.98867, 6.02713, 5.00409, 2.01629
1.97025, 4.04303, 1.99557, 0.986464
3.94732, 3.97679, 5.95626, 3.96525
4.99211, 4.99525, 1.96768, 0.995215
7.90443, 1.97642, 1.9821, 2.97394
5.96838, 6.98527, 1.95717, 8.93639
4.95423, 5.98341, 2.97023, 1.98999
0.000000, 5.93917, 7.02727, 2.96985
2.98486, 3.97711, 4.028, 1.00146
4.99961, 4.99741, 1.95615, 0.989402
1.00505, 0.000000, 2.02894, 1.0089
6.97847, 3.99726, 2.9364, 2.98087
6.95664, 4.05309, 2.99065, 3.99418
3.01519, 2.96011, 3.98548, 9.94385
3.00545, 4.90224, 3.015, 4.98439
1.98266, 2.99586, 0.988274, 2.97298
0.971961, 3.94011, 3.0247, 1.97109
0.000000, 1.01164, 4.9443, 3.04221
2.96484, 7.93104, 3.95071, 4.96908
8.88725, 2.02202, 4.12257, 5.98893
4.03374, 2.98579, 2.99981, 4.92207
5.97823, 3.97331, 1.0005, 4.97868
0.000000, 1.96702, 5.01389, 4.96475
0.994781, 4.94396, 4.96649, 0.982552
1.97942, 3.96727, 2.97954, 3.00022
3.95726, 3.01428, 6.02969, 2.97353
3.98317, 5.99244, 7.00322, 6.9164
1.99838, 1.99885, 5.92386, 4.93338
1.97074, 4.01691, 2.00677, 6.01246
2.00304, 2.99634, 0.979151, 5.95343
3.92166, 5.95229, 4.99827, 4.98963
2.97225, 2.98882, 6.04713, 1.99902
6.01493, 3.00053, 1.99081, 2.99265
3.99501, 6.95194, 4.95979, 3.97826
4.95573, 3.98693, 1.98609, 4.94919
2.96489, 4.03018, 2.97985, 1.99679
4.91668, 3.98207, 1.9778, 4.98114
3.02103, 3.97001, 4.00828, 5.97617
5.93081, 4.00357, 0.996544, 1.97895
6.00059, 2.02094, 2.9484, 1.00074
5.90099, 7.11474, 0.982377, 2.97315
1.99158, 3.98341, 2.99376, 4.98426
4.97126, 1.99036, 1.97309, 3.97179
5.00416, 3.98068, 4.01997, 3.99001
2.92491, 8.96674, 0.970326, 1.97693
4.93934, 1.99909, 0.000000, 2.04049
4.01023, 3.94933, 0.992786, 2.98978
10.9855, 1.996, 3.95676, 2.98821
4.92574, 8.94416, 2.99833, 1.96908
2.98659, 2.00127, 7.92709, 4.93058
5.95904, 0.982887, 4.957, 4.03559
4.94811, 2.99047, 2.96047, 4.03997
1.98133, 4.00819, 6.92586, 4.00482
2.96853, 5.92801, 4.00262, 4.97032
4.97944, 3.94451, 4.97172, 2.97567
3.98581, 2.01611, 3.94496, 2.99688
2.99648, 3.01757, 2.97403, 3.00986
5.9977, 2.98685, 2.98922, 2.00066
6.98738, 2.99825, 0.000000, 3.91579
6.97333, 3.9939, 3.9771, 4.97983
7.97003, 2.98987, 3.00811, 0.000000
2.99741, 1.97181, 3.9713, 3.96235
3.93998, 3.96918, 2.96098, 3.97334
4.97043, 3.96614, 6.97545, 5.00309
4.96342, 1.98103, 4.96095, 2.99349
4.01575, 4.01564, 5.99764, 4.00191
1.99795, 0.000000, 7.92231, 2.99471
3.98285, 4.98596, 4.99651, 4.9997
5.01176, 2.98787, 1.96265, 4.00937
3.99323, 5.97421, 2.98021, 5.93544
6.98647, 3.98652, 6.92276, 0.000000
2.03726, 3.99882, 2.02173, 3.95057
2.94301, 3.01977, 2.97557, 2.96618
3.94652, 3.03357, 4.9243, 5.98464
8.94949, 1.96996, 1.94466, 3.03182
2.96259, 2.99317, 2.98184, 3.01461
5.94551, 1.92584, 2.9967, 3.02772
3.98203, 2.99515, 1.00207, 1.96628
2.95405, 4.98844, 3.00084, 5.93887
4.94484, 2.01307, 1.9793, 3.95267
0.982209, 1.98903, 1.9828, 2.99749
2.96909, 5.95891, 6.99718, 5.0001
1.00015, 0.968198, 2.99075, 0.000000
2.029, 3.98572, 3.93893, 5.00179
2.99594, 0.993303, 3.92031, 2.99222
3.96594, 3.94155, 2.9877, 6.09395
4.98739, 3.96715, 2.00409, 4.04079
2.97587, 4.98475, 4.95671, 1.99184
2.95007, 2.97981, 3.96127, 3.95844
6.95166, 3.99281, 3.94323, 2.95881
6.00294, 4.95572, 4.99099, 1.99084
2.97602, 5.97951, 5.92075, 2.00237
3.97671, 7.00836, 1.99005, 2.96137
3.04026, 2.99185, 4.99552, 4.00139
5.96939, 2.98327, 2.95276, 3.98697
3.01534, 3.9491, 5.97511, 8.00264
2.98349, 4.93527, 9.93837, 4.89138
4.03225, 5.89416, 6.9805, 2.97707
4.94783, 5.96654, 2.96287, 3.00273
5.9372, 5.93368, 5.9952, 4.01419
1.99429, 3.99716, 2.97434, 5.99307
5.01446, 5.03554, 1.99496, 3.94069
4.0112, 4.02083, 5.95448, 4.95142
5.88502, 0.968992, 5.91501, 0.989273
8.94866, 6.01167, 1.96982, 2.01159
3.94055, 4.10638, 4.99589, 1.97187
2.96704, 1.00377, 1.99772, 2.97709
2.97489, 1.97474, 2.94443, 3.93859
2.02564, 2.00536, 3.97653, 2.93123
2.98765, 2.00932, 2.99931, 5.9619
6.9791, 2.97508, 3.01107, 0.000000
2.00343, 1.97397, 6.95477, 2.94632
0.000000, 4.00896, 2.0012, 5.94767
2.9985, 2.99591, 1.00776, 4.00572
4.97654, 3.00305, 2.01677, 5.04386
6.93686, 1.99805, 1.99465, 1.99276
3.96256, 3.99791, 3.00978, 1.95927
6.95999, 2.99366, 3.9996, 3.95497
2.9986, 0.998658, 3.97743, 2.95265
5.03385, 4.96988, 3.00516, 8.91278
6.00546, 5.95093, 4.94399, 1.99938
4.95507, 2.99377, 2.97707, 2.9901
5.02812, 0.000000, 3.0064, 2.97618
4.01287, 1.96796, 4.99636, 0.000000
3.02519, 4.99726, 2.95221, 2.95919
1.97285, 5.9847, 3.06422, 7.01118
2.96264, 4.04863, 4.96837, 4.00027
1.99735, 3.97484, 6.02265, 3.96194
1.98184, 2.96739, 2.02024, 1.98408
5.98026, 3.94923, 2.98793, 4.93107
3.96245, 0.984537, 6.97927, 2.01406
3.97747, 1.99704, 4.99982, 4.93004
3.94776, 2.96138, 0.968573, 0.995682
3.98078, 7.91266, 5.00035, 0.000000
6.00512, 0.99036, 7.01349, 3.97282
6.04728, 5.91855, 6.96006, 2.96923
1.98364, 5.9976, 1.93568, 1.98038
5.00525, 4.99884, 4.93443, 6.95881
3.93374, 3.99022, 2.98345, 7.01243
7.94937, 6.95534, 2.97977, 5.98845
2.02952, 5.01303, 1.99074, 0.997664
0.000000, 4.94945, 1.99214, 1.9908
0.99925, 1.98486, 5.97285, 5.93809
0.999481, 0.999481, 0.976479, 6.20664
4.97942, 2.94791, 3.91058, 1.97348
2.95156, 1.9892, 1.99484, 2.95961
1.98014, 3.98105, 5.94328, 2.93685
3.02427, 3.93594, 5.02715, 1.9962
5.00836, 3.98243, 8.00377, 1.00015
7.97578, 4.00814, 0.979394, 3.97078
3.99798, 7.0061, 2.00363, 8.983
2.99957, 1.0054, 1.94712, 3.97135
5.01426, 0.982224, 4.9526, 6.9845
6.93827, 0.982377, 3.9492, 0.976707
1.96489, 2.97186, 1.97445, 3.99925
2.99271, 2.01167, 3.01669, 10.0322
0.000000, 1.00488, 2.99628, 3.98694
2.00684, 4.9366, 1.97923, 6.93353
4.97469, 5.01739, 3.92547, 1.99692
1.98156, 1.98615, 2.9893, 1.96381
2.94843, 1.96647, 3.95387, 5.99219
2.95053, 5.94902, 4.92571, 4.95478
5.96249, 4.97622, 1.97868, 4.01335
5.00973, 6.00604, 6.87584, 6.97713
6.08077, 1.99129, 2.98335, 8.9421
1.01164, 2.98244, 5.95845, 2.00686
1.0179, 2.00625, 5.94357, 3.99346
6.95446, 5.01943, 3.98899, 4.9626
5.94869, 2.95676, 4.9558, 3.99423
1.97444, 0.992145, 2.9856, 1.93932
3.95698, 4.98095, 0.991217, 1.9937
0.996003, 6.95936, 2.0068, 2.97922
5.02897, 0.995278, 0.989868, 3.9742
8.88993, 6.92866, 3.93233, 2.96538
2.99066, 5.96368, 5.03524, 5.00459
6.00944, 3.02637, 3.9552, 2.00293
4.96034, 6.00156, 3.97478, 3.00237
0.000000, 3.96748, 3.00974, 3.99896
0.993303, 0.985326, 3.95966, 4.00878
4.01193, 3.0038, 3.04497, 4.99747
6.87737, 4.0204, 3.9711, 4.97973
6.04001, 2.94939, 3.99415, 2.00044
1.96983, 5.99129, 2.97335, 5.99062
8.89757, 2.98754, 4.96258, 5.00058
3.94812, 4.01074, 4.94532, 3.96134
5.96741, 3.92068, 3.96128, 6.89872
3.9369, 4.94784, 3.00845, 8.05009
2.0323, 4.00826, 10.8854, 8.97303
1.99916, 4.9824, 5.02087, 2.99834
0.000000, 1.98911, 2.99869, 0.99534
7.93789, 2.99848, 1.0092, 5.93763
2.98479, 3.98327, 2.97291, 3.92924
4.98779, 4.93426, 3.98745, 5.92013
2.97394, 7.97641, 3.94967, 3.94888
2.1294, 3.96547, 2.98773, 1.9884
6.00038, 1.97106, 3.97064, 3.99718
2.94906, 10.964, 4.96801, 4.0166
1.98003, 4.9751, 1.99304, 5.99344
2.98175, 4.99874, 4.98332, 0.983873
6.95233, 5.95014, 2.00794, 4.99091
2.00867, 7.9384, 5.99083, 1.97014
4.9686, 3.97833, 7.01032, 1.94158
5.98827, 1.00538, 6.92821, 4.98722
3.00569, 1.00478, 4.00942, 4.00564
6.01406, 2.00186, 4.94982, 2.98218
2.95884, 5.93498, 5.95063, 2.01456
2.96059, 4.0108, 6.01581, 2.00765
3.00699, 4.94912, 3.99052, 4.95912
5.98654, 4.92916, 1.98004, 6.03503
3.97092, 2.9666, 4.99391, 2.95827
3.99788, 2.96549, 7.88011, 3.99116
6.95015, 2.00399, 3.95768, 6.95064
5.98094, 3.98137, 5.95627, 1.0284
5.97293, 1.99385, 2.98297, 4.01545
5.99032, 3.91996, 2.99698, 1.95505
5.04443, 5.98486, 1.9997, 3.94103
2.9834, 1.99704, 4.00242, 4.99657
6.97901, 2.99299, 3.01982, 3.99354
1.98744, 4.98016, 3.94762, 4.97004
4.04689, 4.89399, 3.00755, 5.99487
0.994688, 8.9998, 4.93733, 1.97235
2.01374, 4.03203, 6.94558, 4.00868
3.93424, 1.98993, 7.95953, 5.96717
4.9591, 3.00208, 5.90336, 4.98411
0.000000, 2.99375, 0.992145, 1.9989
4.9308, 2.97164, 6.94873, 3.99351
4.9505, 2.92169, 6.92833, 9.95827
5.91597, 2.9798, 2.98354, 7.95266
4.94111, 6.97655, 4.97204, 4.00105
2.9723, 4.97382, 4.94896, 4.98858
1.9684, 2.98043, 2.00367, 5.9659
0.993865, 0.987895, 5.99445, 0.000000
1.94657, 3.01129, 2.99983, 5.97604
2.01548, 6.29258, 6.93433, 6.92338
5.01373, 4.94522, 5.96681, 3.99891
3.9509, 8.99833, 6.01035, 5.95706
1.98119, 2.97306, 3.96469, 4.97759
3.99289, 4.98144, 4.00896, 3.97319
4.00101, 2.98804, 4.97551, 5.03086
1.98465, 6.95156, 6.89873, 4.98321
3.98482, 3.01753, 3.04155, 8.96122
6.93669, 5.93319, 2.96231, 1.99021
10.992, 7.94828, 7.89172, 1.01689
3.00481, 4.02765, 2.98815, 6.16873
4.95364, 2.97955, 7.90963, 3.01183
7.98709, 6.94311, 2.95514, 4.02843
5.98223, 3.99265, 5.97444, 5.95795
5.92969, 3.9568, 5.03597, 5.01658
4.03508, 2.02034, 3.97106, 4.05316
3.9626, 4.00985, 1.98836, 2.94434
4.98267, 4.98779, 1.98021, 6.97853
4.92339, 6.0438, 2.98178, 5.94893
6.00086, 2.94058, 5.0209, 6.968
2.98825, 2.96171, 5.97361, 7.01219
5.02578, 7.02167, 5.31273, 1.95399
1.00127, 5.00426, 2.01631, 6.00678
5.01701, 2.02682, 4.95764, 3.98093
6.97111, 1.00207, 4.01064, 0.99925
1.96913, 4.9241, 5.92522, 5.98991
5.98181, 1.99926, 5.91032, 5.94572
4.00364, 2.96652, 7.01006, 3.9426
4.98531, 4.97516, 2.99568, 3.99189
2.98114, 7.97023, 2.99638, 2.97087
2.97545, 4.92019, 7.97957, 4.07661
6.97649, 5.00735, 3.01724, 4.96364
6.05309, 1.98812, 6.95358, 3.96993
3.95993, 6.98393, 4.99798, 1.01495
0.9976, 5.97482, 3.00512, 3.99581
5.1225, 4.97418, 0.952998, 3.96174
0.958476, 2.96429, 0.968992, 8.93392
1.9496, 0.996603, 6.91909, 8.8941
2.97475, 5.92284, 2.94504, 3.98669
5.97206, 3.99996, 5.90465, 4.96195
5.93413, 3.92788, 1.97295, 5.05339
7.94291, 6.98844, 4.98697, 3.04624
4.01674, 7.97524, 3.00394, 4.00048
3.00938, 4.99375, 2.98109, 5.94702
6.98871, 3.95756, 8.00578, 7.9734
7.90037, 6.97268, 4.00997, 3.94977
3.96238, 3.97868, 6.97853, 7.95596
5.94736, 7.92148, 6.94918, 6.00605
10.8936, 3.93032, 4.91974, 6.97737
4.96749, 6.92494, 1.99207, 8.98242
4.02665, 3.99291, 7.94025, 0.000000
8.96397, 8.89772, 5.00025, 4.96992
5.05979, 2.00834, 8.9503, 3.94726
5.96006, 7.86897, 7.92721, 5.99581
9.94038, 6.06579, 6.03714, 3.01054
5.00722, 4.96234, 7.95692, 2.98237
9.00526, 5.8507, 11.9391, 11.8882
6.95246, 11.9555, 7.95135, 5.96344
2.9815, 9.94214, 5.99258, 11.0403
9.9336, 6.98999, 6.93175, 9.00726
10.9544, 6.06926, 10.8607, 5.16927
6.00916, 7.99411, 4.97397, 8.8742
5.01842, 10.0079, 12.9133, 10.8971
8.98981, 10.2503, 3.98972, 13.1136
6.90647, 9.90041, 7.0181, 9.01531
6.01322, 9.95935, 3.9177, 16.9018
10.9977, 8.97785, 4.97744, 10.986
9.95719, 11.0364, 11.0161, 2.96632
8.1209, 4.9622, 6.96924, 9.11445
8.93991, 12.0319, 6.97273, 6.98508
6.04157, 8.88718, 4.9891, 17.7855
7.96683, 15.8315, 7.92857, 17.071
14.9801, 13.9225, 8.93842, 5.99533
7.97985, 1.96657, 7.93863, 12.9254
11.4836, 9.98695, 13.9714, 13.983
9.33414, 9.93491, 6.97028, 8.97783
7.8903, 8.01104, 14.9186, 20.9485
10.9629, 13.974, 6.96013, 15.7889
20.8706, 15.9631, 6.98443, 10.9402
17.2028, 13.8738, 5.95704, 18.9506
9.87089, 14.9929, 14.8161, 14.0414
17.9742, 16.8682, 16.9477, 20.0277
22.9663, 19.9018, 17.9099, 14.058
10.9545, 11.9783, 18.9884, 14.9524
20.8314, 21.8607, 23.0052, 16.8866
24.7815, 27.7966, 17.9133, 23.735
27.8654, 24.9544, 32.8458, 39.8291
31.8091, 31.246, 40.3565, 33.1376
36.0303, 42.1071, 39.9056, 34.8149
32.914, 50.9901, 49.9798, 56.7981
41.9933, 47.1234, 55.8548, 41.7202
63.1732, 64.9099, 68.856, 70.8941
66.7382, 65.8683, 78.0381, 86.6288
75.3916, 92.4815, 87.0824, 78.9668
102.719, 85.6827, 107.256, 112.832
107.426, 114.946, 112.861, 129.336
135.495, 145.484, 122.571, 132.569
134.893, 174.257, 150.955, 178.643
204.953, 204.618, 215.238, 218.923
235.185, 262.235, 245.079, 290.498
286.475, 336.489, 353.64, 442.117
500.41, 659.09, 907.339, 1219.7
1911.39, 3000.21, 5787.98, 11970.5
19927.4, 27810.2, 33609.1, 37291.2
45587.7, 61011.9, 74353.8, 78840.8
73763.9, 70363.9, 61661, 45525.3
30516.2, 21201.8, 14635.6, 8797.95
5067.56, 2507.46, 1146.64, 630.395
380.84, 261.373, 223.863, 197.883
163.282, 161.665, 136.345, 146.638
120.535, 113.285, 104.481, 106.129
110.692, 90.8602, 79.8499, 84.3439
73.6719, 86.0783, 82.2629, 61.8021
57.1982, 61.765, 53.7738, 62.4974
61.7431, 53.912, 53.7541, 59.1109
51.7936, 46.8462, 54.8773, 57.1365
52.1904, 50.8562, 37.8598, 34.3982
41.7658, 48.0753, 36.9339, 39.7477
28.226, 39.9327, 33.7935, 34.9918
27.9062, 31.1228, 24.9793, 24.9187
24.9483, 31.8429, 28.2392, 35.1804
20.8191, 27.1883, 23.8522, 26.8463
18.1193, 20.3347, 28.1334, 21.9202
29.8363, 19.0378, 19.9821, 20.9534
17.9732, 18.9988, 18.9289, 28.8735
22.2044, 21.9104, 13.07, 19.9229
27.0354, 16.9131, 17.9894, 15.9936
22.8722, 10.9236, 22.9447, 17.1572
11.9178, 17.9306, 11.9528, 21.9909
19.0212, 16.9605, 20.9787, 11.9045
12.1948, 16.0075, 11.0242, 11.0125
8.96827, 16.866, 15.8876, 11.0335
9.96317, 16.9351, 8.96124, 18.8652
16.0646, 11.9874, 18.925, 13.0024
9.90266, 13.9576, 12.8921, 15.9963
11.8339, 16.8528, 11.905, 11.2379
10.9841, 14.0066, 9.9116, 15.9783
15.9826, 10.1188, 18.9414, 8.95604
6.94225, 9.96903, 8.92295, 15.9265
10.8969, 6.94993, 12.0055, 8.94132
10.9327, 10.9375, 9.96634, 15.989
14.0176, 6.9329, 9.88227, 9.87446
8.92694, 7.95818, 8.00095, 9.89806
8.8421, 11.9852, 6.98789, 8.00225
10.0463, 18.9331, 12.9302, 12.9151
11.0427, 8.91522, 11.9827, 12.9762
6.93284, 9.02194, 6.02886, 5.9871
9.02111, 11.9553, 6.98501, 8.94644
8.9474, 9.98748, 12.9658, 10.0341
11.0484, 14.9293, 8.96726, 12.9302
6.95842, 9.99365, 8.98318, 6.9909
6.02898, 17.9969, 8.96966, 6.96693
10.0077, 5.02973, 4.99039, 7.92691
5.92982, 10.0018, 6.974, 5.96205
9.9769, 8.86167, 7.86898, 5.93232
8.98599, 5.96978, 11.2662, 11.9535
8.00611, 10.9445, 8.00971, 6.96996
7.9992, 8.23608, 15.9166, 10.0479
7.86925, 4.97023, 5.02506, 10.8868
5.96047, 12.1895, 7.94302, 5.91063
10.0734, 6.93686, 6.01561, 11.9409
8.00689, 5.94793, 7.3474, 11.9564
7.0072, 8.97457, 6.95956, 0.000000
3.00193, 11.0245, 1.97535, 4.97251
7.96426, 7.97096, 11.9364, 8.11036
2.04007, 7.9006, 6.04123, 7.98377
3.98646, 2.98692, 7.96344, 8.94833
5.99076, 5.11775, 11.9279, 7.95767
6.9597, 3.96176, 9.03294, 7.96259
9.04564, 10.1322, 10.9447, 9.92365
4.96183, 7.95089, 6.92202, 4.96352
6.00842, 6.99435, 8.93522, 8.99971
11.1158, 8.96125, 6.94405, 9.24305
9.92704, 9.93414, 6.96052, 4.00169
5.03543, 9.01214, 2.98186, 5.99918
5.9856, 3.98656, 5.95441, 7.92848
4.97875, 6.03276, 3.9957, 6.02418
6.99086, 5.96874, 6.99604, 11.1582
4.02783, 8.94272, 3.00515, 7.9785
12.9597, 4.00743, 4.97541, 5.01054
8.0363, 2.98914, 4.97576, 4.97918
3.98159, 5.91456, 6.95666, 3.9538
1.99361, 7.01446, 5.98307, 5.11041
4.00475, 7.94125, 4.95889, 1.01545
7.99731, 9.97449, 9.96765, 7.89937
3.94449, 8.90578, 1.01098, 4.94776
7.02084, 7.9312, 4.94777, 4.97012
3.96192, 4.95494, 6.97904, 5.05005
7.10497, 5.91438, 3.99299, 5.99732
6.95297, 2.94259, 6.95206, 1.98222
6.96859, 1.98776, 0.000000, 1.9893
2.93798, 4.96745, 3.96976, 2.96483
7.97527, 1.99496, 8.97398, 5.93401
7.95633, 2.9819, 6.96812, 3.98651
1.9938, 6.96033, 7.97835, 2.99725
4.96097, 7.0295, 7.95869, 5.94959
3.99562, 13.9924, 6.01788, 1.95932
3.99276, 6.98474, 3.96513, 5.96829
7.96843, 3.00805, 4.99986, 2.98843
9.90988, 6.90534, 6.03034, 8.00286
0.989868, 6.03454, 3.96125, 6.90839
7.01892, 4.9652, 9.90767, 5.93902
5.0117, 8.97285, 3.94515, 2.00547
2.98342, 2.99883, 1.9658, 4.12813
3.97907, 4.98941, 4.00945, 7.93808
8.32332, 4.94107, 6.98197, 6.03907
2.99536, 1.97825, 6.92467, 2.00153
4.92619, 4.01128, 3.96385, 5.02363
0.984783, 0.998873, 6.00098, 7.03529
4.0013, 2.99846, 3.96184, 2.99442
7.96247, 7.19713, 3.98504, 2.92706
4.94293, 0.998276, 8.01776, 2.98932
1.03153, 4.976, 2.98979, 3.01775
5.98416, 6.93598, 6.89326, 5.05454
3.00321, 1.01777, 3.94936, 5.92977
5.03511, 3.99539, 4.95299, 8.93683
5.95691, 4.95283, 2.96103, 2.11443
5.94889, 5.95732, 2.96702, 0.985326
4.98375, 3.94399, 2.99391, 4.95886
4.91905, 3.02518, 6.03239, 3.96901
3.01075, 4.96431, 3.94018, 5.91952
2.98834, 7.00876, 1.999, 1.97451
2.99534, 2.96512, 6.95393, 2.98497
6.94444, 3.98519, 6.9777, 2.95613
5.01521, 5.977, 4.00447, 6.94224
0.987011, 4.93804, 5.01508, 5.04446
5.95281, 3.99844, 2.97524, 1.98651
5.95467, 7.01424, 5.04326, 7.94034
6.94288, 3.97283, 4.93314, 2.96161
6.99897, 5.95035, 3.95274, 5.02943
4.98358, 2.99635, 2.99557, 0.000000
4.00946, 6.01623, 7.96868, 4.00679
3.93616, 4.9736, 5.92639, 1.99775
5.99048, 7.94949, 8.0112, 6.0276
4.94823, 2.92159, 5.96961, 3
4.95693, 3.92853, 0.000000, 3.92928
2.97672, 5.01695, 2.99337, 10.9677
5.00916, 8.99289, 0.979109, 3.02172
5.12604, 3.97595, 5.98856, 4.95656
3.00315, 4.97706, 4.98377, 4.02052
5.92228, 8.99971, 3.02476, 5.94271
3.94946, 3.98595, 7.9276, 0.000000
3.97507, 3.01743, 9.88714, 5.02214
4.9665, 1.98255, 2.00346, 2.95099
5.94251, 5.99412, 1.98078, 1.9954
3.97634, 7.81795, 4.02284, 0.98897
4.9939, 4.95533, 7.94721, 4.9586
4.88349, 6.90854, 1.98731, 0.963393
2.99665, 2.94222, 8.98444, 0.000000
3.9385, 6.97551, 1.97892, 2.96415
6.99908, 6.93673, 5.95946, 5.96484
3.95238, 6.00698, 1.92762, 4.92631
4.00919, 5.92147, 4.01515, 3.01742
4.97576, 4.9652, 0.000000, 2.96575
3.92741, 1.99672, 1.98921, 8.97008
1.98243, 5.98227, 4.00524, 3.91257
3.99789, 3.00989, 0.992768, 4.95491
2.01347, 5.93793, 3.98495, 10.119
3.92142, 2.95044, 3.97638, 4.04421
3.01055, 1.01478, 4.95838, 3.92298
4.96412, 2.98385, 4.97912, 4.98292
4.93597, 5.97804, 2.97956, 1.98811
8.89694, 10.8298, 3.98759, 0.000000
3.98579, 6.93906, 2.97275, 0.976707
6.98931, 4.94531, 0.000000, 7.98171
3.91907, 1.9852, 0.975458, 6.06215
7.92762, 3.98954, 2.98579, 7.00728
6.97069, 7.95104, 3.98121, 7.94509
3.97798, 6.99791, 2.94554, 4.94127
3.98324, 2.02565, 6.95032, 3.99197
7.97093, 6.94021, 2.98477, 1.99885
4.99452, 6.96297, 7.00693, 2.9934
0.983507, 4.97573, 4.98456, 4.93163
4.9761, 1.01901, 3.0147, 2.96327
4.99289, 4.95179, 3.90505, 1.00085
6.92783, 0.999481, 2.02599, 2.97955
4.97034, 5.99242, 3.95279, 1.95083
4.01881, 5.02095, 0.99065, 0.000000
0.988972, 2.93354, 1.9984, 1.99221
4.04722, 7.94146, 6.94906, 4.97367
5.91369, 5.15035, 0.982552, 1.95807
0.973592, 4.96406, 7.96497, 2.99418
4.99908, 4.00057, 3.97469, 8.9189
6.95832, 9.94418, 4.99353, 3.95249
3.02317, 0.000000, 4.97804, 0.996544
4.98557, 1.99434, 2.95515, 5.93659
3.01017, 3.97928, 6.94862, 1.00488
8.99188, 5.03496, 2.99221, 0.986126
0.991773, 0.000000, 8.97165, 6.03542
5.97321, 5.92559, 4.01299, 3.96415
3.00901, 4.12196, 6.9833, 2.99226
3.00693, 0.993811, 1.9851, 4.98819
1.95764, 3.96403, 3.0111, 3.94247
4.94042, 3.91858, 2.96998, 1.97196
4.95471, 6.96845, 3.01599, 5.99445
4.99649, 2.0201, 2.95829, 0.977629
2.9867, 3.99175, 1.00074, 3.96432
3.96505, 2.98573, 2.00506, 4.91382
3.96763, 2.98455, 5.00829, 4.98331
7.97495, 5.99614, 3.94614, 5.02734
4.99596, 3.92472, 4.98562, 4.05361
5.96779, 5.99581, 3.9851, 4.04846
4.96393, 3.00164, 3.98376, 6.94222
0.000000, 6.02222, 1.00074, 5.98591
3.00484, 1.00095, 1.98894, 3.13662
5.0288, 6.00035, 1.98251, 7.9837
1.01164, 2.99208, 3.02894, 7.96039
2.00031, 4.07514, 4.9733, 3.99243
1.98193, 2.97325, 6.91932, 3.93868
1.98228, 1.97859, 5.01125, 3.99713
0.98902, 3.95033, 2.0194, 5.926
3.96564, 3.97326, 3.01388, 2.97383
8.93915, 3.03746, 4.9441, 1.95975
1.98757, 3.01755, 4.95447, 6.00268
5.95671, 1.94718, 6.9907, 7.99564
5.95102, 5.92484, 2.04344, 4.93288
3.93775, 3.98156, 3.01538, 6.92297
2.98175, 7.881, 3.00145, 3.98219
2.00118, 0.989273, 0.000000, 2.98265
0.995433, 2.99658, 3.93591, 4.95618
2.93197, 0.989949, 6.96688, 3.96492
2.98383, 1.99567, 3.96641, 4.01344
2.96845, 3.97354, 8.94701, 3.95815
5.98046, 3.9643, 4.98239, 3.94117
4.9478, 5.98383, 5.2648, 2.97027
7.02294, 3.94929, 4.02182, 4.92575
4.95313, 7.99806, 6.02043, 7.93305
1.98893, 1.98999, 2.90526, 1.0092
4.00456, 6.94299, 3.01187, 5.93644
1.00329, 2.96238, 2.02347, 4.97091
4.98501, 4.96978, 2.98508, 2.96947
1.97996, 0.982552, 5.93224, 5.98487
2.9761, 3.95888, 5.96544, 4.97418
6.95481, 4.00595, 2.96291, 4.9603
1.99414, 3.93674, 5.92129, 2.96947
3.99414, 1.0063, 2.98761, 0.994781
6.97618, 6.00543, 3.95872, 2.9616
2.01233, 3.03788, 4.92602, 3.99875
4.00655, 5.01497, 5.98146, 3.93392
3.9369, 3.98483, 1.99958, 2.98783
1.00596, 5.02664, 4.96447, 4.96854
4.98916, 0.995167, 4.97656, 3.99598
5.90616, 5.00292, 1.99717, 2.99087
1.97965, 5.89704, 3.99037, 9.99601
2.96982, 3.98974, 3.9651, 5.99441
8.03816, 1.9916, 2.99007, 4.9611
0.000000, 5.86473, 8.94063, 4.97983
1.00886, 5.01343, 1.99871, 2.97187
4.99595, 4.92127, 6.01617, 6.9881
2.96394, 3.99673, 3.0031, 3.97937
2.96024, 7.02948, 5.95576, 4.90136
6.01598, 1.01495, 5.98377, 2.94898
2.9955, 2.01546, 3.96766, 1.99996
1.98263, 3.99223, 3.99322, 6.01352
5.96884, 2.00146, 6.96961, 5.96136
4.96912, 7.99523, 3.00872, 2.94002
2.99491, 3.97813, 7.95575, 2.99243
6.92853, 1.97952, 4.0456, 4.04674
3.95907, 2.98314, 4.97968, 0.000000
2.97623, 2.99477, 4.00806, 2.99213
5.9542, 4.95447, 2.94551, 2.02063
6.97123, 7.94997, 7.02836, 5.96594
4.96127, 3.00031, 4.98803, 4.99371
3.01131, 5.03101, 5.88784, 0.972822
2.97926, 5.01099, 5.85284, 3.9557
4.96978, 4.95744, 6.94603, 5.00474
4.93536, 5.99614, 4.94181, 4.98354
1.99535, 8.91898, 9.00904, 3.97746
1.98536, 1.00207, 4.98695, 8.12925
4.87309, 13.9209, 2.97223, 7.88956
2.92533, 3.92926, 1.98849, 4.99421
3.93616, 2.00222, 5.96626, 2.96712
1.97112, 0.989868, 7.9555, 3.93394
5.94951, 5.01536, 2.97391, 1.98882
5.00315, 3.98112, 3.97521, 5.97352
6.02749, 3.95734, 2.9891, 5.97006
3.99782, 9.99278, 2.00256, 1.99414
3.96985, 5.01658, 3.01737, 2.99494
3.92994, 3.02488, 2.95366, 3.98954
3.02476, 2.99024, 6.97856, 3.96033
5.03667, 4.8809, 4.99519, 7.94559
7.93583, 5.98834, 5.9401, 4.92041
2.01169, 2.99175, 4.99957, 4.018
3.03481, 1.99395, 3.93585, 3.00964
3.01704, 9.1079, 2.96518, 0.997802
0.990515, 1.98054, 5.98779, 2.98132
2.00333, 1.97685, 9.95205, 4.98159
6.93442, 2.00932, 5.96571, 2.99879
5.97784, 5.95507, 2.95894, 6.93832
3.94342, 6.97952, 4.95025, 3.01265
4.9362, 1.98652, 0.000000, 0.985136
3.99767, 0.000000, 5.96341, 3.00256
2.96974, 3.95977, 2.00717, 2.99981
3.97675, 2.02635, 4.91884, 2.00011
2.96469, 3.94342, 3.91599, 4.91963
5.15822, 2.00327, 1.98815, 2.98862
2.94001, 2.98692, 2.00002, 3.97458
3.96738, 8.04774, 4.96631, 6.97923
3.01272, 4.95568, 0.977834, 1.98746
5.98717, 5.01008, 5.92814, 2.95508
3.94131, 4.89828, 4.04227, 6.00135
3.99495, 2.99139, 0.000000, 3.96633
1.98455, 5.92934, 4.98162, 5.04799
5.92916, 4.99718, 3.98552, 3.96704
3.99811, 5.99312, 0.998964, 2.00779
3.95819, 2.96752, 6.92396, 4.94747
2.96112, 9.35113, 6.9411, 2.96948
3.03829, 5.9443, 7.93432, 4.02373
4.94725, 4, 4.93081, 4.01199
6.95091, 4.26683, 2.98319, 3.02365
2.98755, 4.93722, 5.96162, 5.97004
3.97327, 7.02027, 6.10366, 10.9512
3.97964, 4.93001, 3.01607, 5.97375
4.97284, 6.90576, 3.94681, 4.99445
4.91946, 1.99745, 3.92002, 1.99576
2.00403, 2.94721, 3.98561, 5.895
4.99883, 5.97232, 2.00819, 1.98671
1.98351, 3.97838, 3.00505, 1.96946
2.00165, 5.97924, 3.99646, 7.94837
2.01729, 3.97317, 1.95832, 3.99427
2.97617, 6.95775, 2.93593, 8.92217
2.96047, 9.9863, 4.00579, 3.96468
5.98458, 4.98903, 1.98047, 2.03542
4.95613, 2.98664, 2.99598, 6.9481
3.97278, 2.98579, 6.97394, 3.92427
3.02914, 5.94698, 5.01689, 5.92084
4.9753, 5.99972, 0.989273, 3.97181
2.00191, 4.95219, 3.01397, 1.00614
3.99278, 10.9634, 4.98069, 3.94244
0.99534, 4.99278, 2.96224, 4.01587
0.99392, 11.8595, 0.977416, 5.00214
5.01644, 0.986464, 6.00057, 1.98149
3.98435, 6.02626, 2.94621, 3.9714
5.99613, 4.94827, 2.00105, 5.90491
3.916, 0.982209, 2.95532, 1.99147
4.92615, 2.95787, 2.01824, 5.9534
5.0287, 5.96157, 2.97588, 1.98299
3.97905, 4.95291, 3.97469, 4.94218
0.994553, 3.99925, 3.0074, 8.99512
5.98972, 5.97034, 4.94899, 3.9894
4.95927, 5.96153, 7.94443, 5.99909
3.96217, 3.96907, 7.03718, 7.00395
1.00712, 3.98511, 1.93684, 3.98882
1.98238, 6.96717, 1.98957, 4.98231
2.01788, 2.98345, 6.03189, 2.00653
6.89252, 5.00615, 8.01426, 4.9232
1.98364, 3.04103, 1.99015, 2.99552
5.97268, 7.00482, 2.96002, 1.93845
1.97741, 1.98767, 6.10573, 5.96332
0.998327, 1.96669, 6.96807, 5.98178
6.00272, 1.99289, 4.98624, 3.0033
5.01334, 2.99709, 2.99997, 5.07676
4.9925, 0.996462, 1.98746, 2.99177
1.99082, 0.000000, 1.01098, 4.0007
5.92768, 2.97199, 2.97689, 0.983409
1.01996, 1.98793, 8.88927, 5.95109
2.98049, 4.93711, 5.00809, 1.01098
1.94646, 5.96958, 3.97019, 1.98752
4.95, 2.9942, 3.9983, 5.01927
3.98019, 4.01573, 6.94776, 5.92203
5.85048, 8.97578, 2.9606, 0.000000
1.97384, 6.98769, 3.95988, 3.96218
2.95762, 2.98726, 2.95201, 3.96136
3.00499, 3.96001, 6.92525, 6.87964
5.96613, 1.9587, 2.98999, 5.0397
2.97241, 8.94418, 5.98673, 3.00726
2.01198, 1.99932, 0.000000, 4.99517
2.97484, 7.97973, 2.99373, 2.93331
4.9777, 1.9466, 7.00465, 6.97254
4.91588, 1.99684, 5.10361, 5.95886
3.99475, 4.97864, 1.99569, 5.92166
6.95298, 5.05255, 3.00837, 4.00387
2.96062, 6.96801, 3.0002, 5.94755
7.96665, 5.04374, 1.99293, 5.97394
4.95797, 5.04246, 5.95427, 4.97969
7.96358, 6.90899, 3.97865, 2.98341
5.05101, 10.9621, 8.99108, 6.91978
0.992196, 1.98319, 1.9862, 4.91551
7.02606, 3.07068, 6.94392, 0.994332
1.9961, 4.00223, 2.97914, 3.949
1.99944, 5.03505, 4.92701, 4.92674
5.96566, 4.06447, 4.03727, 7.88607
1.91838, 0.989868, 3.97772, 2.04351
0.998964, 4.91158, 10.0134, 4.98025
4.01738, 3.96228, 5.98273, 3.02201
4.04769, 5.91614, 2.03146, 3.98213
7.98955, 5.96361, 3.95145, 1.99424
4.97881, 6.92686, 1.99535, 3.97252
1.9887, 2.99979, 1.98293, 5.96372
4.02356, 2.02426, 0.000000, 6.99741
11.0828, 1.00007, 4.03019, 3.94523
3.97916, 4.96823, 1.98061, 6.96422
2.98656, 6.87161, 4.9914, 6.93891
9.89074, 10.0148, 5.98258, 0.971069
2.00646, 4.95771, 5.95364, 2.01287
9.90639, 11.055, 5.94611, 5.00316
6.9694, 4.97889, 5.97929, 5.94783
6.95397, 5.01967, 4.00434, 3.99916
10.0139, 4.13009, 3.97367, 5.97112
4.972, 3.96957, 5.97661, 5.97642
5.93786, 6.15604, 6.9407, 3.96897
4.99962, 3.96194, 7.94072, 0.988008
0.979404, 8.93859, 2.99632, 6.89703
4.94249, 0.992365, 4.94109, 1.99426
5.95435, 4.9939, 8.98142, 5.92435
5.94106, 0.998752, 5.01418, 4.0918
1.98188, 3.94229, 3.02194, 3.95629
8.94668, 5.98116, 3.02512, 5.0651
7.03539, 6.94483, 6.02994, 4.95518
4.00979, 2.0087, 2.97269, 4.0163
7.91288, 4.14397, 5.93391, 7.94936
5.02025, 2.99571, 2.98413, 6.97771
0.987066, 2.99213, 3.97875, 2.98473
2.99735, 2.96501, 1.97686, 2.96527
9.9424, 5.96622, 4.997, 2.9991
4.98441, 4.91015, 4.98363, 6.00348
7.00265, 4.97675, 4.98516, 5.96158
4.94219, 5.95969, 3.9597, 6.91441
3.9711, 2.88337, 0.000000, 3.96762
1.96192, 6.01416, 4.95877, 2.00301
4.04067, 2.02097, 5.8948, 3.96283
5.94924, 5.95031, 5.98881, 3.97743
3.99203, 3.98382, 2.9804, 3.97946
2.94187, 4.98439, 2.97646, 2.98491
0.993811, 6.0128, 2.99046, 3.9642
4.95567, 5.99536, 5.00618, 1.95538
0.000000, 3.96831, 1.99206, 2.96759
3.01278, 5.97556, 6.97836, 0.993737
7.96808, 5.9974, 6.00176, 4.94111
5.97495, 3.97246, 5.97297, 6.98035
1.9844, 3.00166, 3.94687, 1.98122
4.01171, 5.98491, 8.11713, 5.94795
4.92133, 5.96783, 1.03375, 4.99449
6.92916, 5.92765, 3.97652, 1.94522
1.99107, 1.0081, 3.967, 0.962919
3.0156, 3.90783, 3.00237, 4.93356
4.0061, 1.97775, 6.00219, 7.13342
0.993218, 4.94792, 3.98809, 2.96247
4.00677, 13.0565, 3.98844, 5.97572
3.94307, 2.97887, 4.90861, 4.97057
4.2753, 0.973451, 6.03281, 5.00367
2.0035, 4.95724, 2.01843, 6.00239
5.97998, 6.90952, 3.00554, 6.8935
5.9543, 6.95771, 4.00625, 5.00334
2.01661, 3.992, 3.9674, 5.93404
1.9718, 2.99632, 4.98075, 6.98776
3.04375, 2.99391, 0.990515, 3.91514
3.99515, 6.92809, 4.97842, 3.96378
7.9314, 0.993218, 4.00938, 1.99084
2.14073, 4.97876, 7.96116, 2.97474
3.98833, 1.99321, 4.01769, 2.95609
1.01016, 2.94538, 4.96996, 5.96799
3.00847, 4.94185, 5.91343, 7.05369
4.93257, 1.95758, 3.00714, 2.0153
1.98666, 1.99744, 3.97996, 4.95415
3.93946, 4.96714, 3.98161, 3.91854
1.99524, 2.00428, 2.97129, 5.97928
5.93449, 6.97951, 2.99934, 2.90199
0.996403, 3.03392, 2.94962, 5.93635
1.97811, 2.99318, 4.0305, 0.000000
4.00116, 2.0247, 0.988818, 2.96498
6.97625, 1.01495, 1.98505, 5.97968
6.00789, 4.00048, 2.97744, 3.93489
6.97633, 2.97352, 1.99974, 5.98396
3.97424, 4.9834, 5.97158, 0.97895
4.95131, 4.93273, 1.00162, 1.00583
4.95718, 5.15292, 2.0129, 6.95612
7.93274, 5.03166, 3.95252, 0.000000
2.00267, 4.99296, 4.91371, 1.97505
2.98913, 2.01296, 5.96098, 3.98845
5.9206, 4.93945, 4.96517, 5.96574
0.996603, 1.96633, 4.04748, 2.9956
2.97856, 5.09283, 3.97549, 0.000000
4.95389, 4.95341, 1.04108, 1.96724
1.96803, 5.9891, 1.98517, 6.03304
2.95228, 3.00733, 4.01624, 3.00595
3.00399, 4.97774, 3.01228, 3.01558
1.01689, 3.93476, 6.94679, 0.000000
2.96038, 6.96587, 0.992221, 1.98885
4.96002, 4.89405, 4.01711, 3.95247
6.94393, 4.01643, 2.95959, 6.93455
5.0348, 4.9364, 3.93816, 4.01995
3.0123, 3.98942, 11.0111, 1.97228
2.9848, 1.00139, 2.99206, 5.93332
1.97966, 3.01485, 4.9701, 1.01098
2.97258, 4.0394, 3.97406, 5.96125
2.9662, 1.99444, 2.93822, 4.98942
3.95296, 5.97883, 2.98079, 2.97065
2.02162, 2.97153, 1.99616, 3.99276
3.97487, 3.96841, 2.02079, 0.982552
2.97197, 1.98407, 3.99923, 4.95791
2.97874, 6.98282, 5.96492, 5.00817
11.9441, 2.98367, 5.04971, 2.9403
3.03531, 4.00735, 2.98584, 3.96031
6.00902, 2.99065, 5.97111, 2.98647
4.95999, 4.98033, 2.98413, 6.89569
2.99054, 6.00762, 3.94282, 5.97577
1.97943, 9.0469, 1.98172, 3.96407
5.94864, 4.01052, 2.01251, 5.99314
5.99207, 7.93675, 7.00698, 2.97296
4.96211, 4.99522, 2.98479, 7.89031
2.97642, 1.99895, 0.996773, 3.97348
8.98062, 4.01101, 2.98919, 4.98838
3.94464, 1.98933, 3.98336, 4.0285
3.0487, 5.97493, 6.99322, 3.97476
0.986464, 0.994105, 2.98828, 4.96941
3.97513, 8.9808, 5.99004, 3.9825
3.98602, 4.9291, 2.96776, 2.99388
2.97818, 1.96582, 4.97063, 5.98126
3.00152, 6.26293, 7.95716, 5.95254
5.01524, 1.01164, 0.979388, 0.000000
2.00122, 2.01332, 2.9452, 3.03465
5.12079, 3.98176, 6.98532, 5.92728
4.89841, 4.01679, 6.96932, 4.99155
0.000000, 3.96401, 3.00157, 3.98295
4.95557, 4.98572, 3.00957, 3.93062
3.95207, 4.001, 4.02016, 4.95796
0.995193, 1.95568, 3.96998, 4.00817
2.93605, 0.976754, 5.97235, 6.93762
2.9893, 3.02232, 2.98253, 6.0168
9.10501, 4.98291, 3.99029, 4.12136
4.0099, 4.96581, 4.93018, 0.986583
4.00783, 5.96901, 2.97162, 4.97399
0.995698, 3.91775, 5.95067, 0.986087
1.0092, 7.94562, 3.00755, 0.998603
5.94145, 2.97425, 2.0145, 5.96664
2.00407, 2.00076, 6.92922, 1.00455
4.93403, 2.99607, 5.95105, 2.97103
3.97006, 1.98258, 2.99442, 4.95736
4.98141, 0.000000, 6.90584, 5.91862
6.96943, 1.98581, 5.98157, 5.99004
2.01674, 4.9692, 3.98193, 1.95453
0.998265, 2.00572, 0.972822, 1.99737
6.94486, 4.01322, 3.94685, 4.97043
5.94764, 2.95115, 3.94819, 1.97653
2.98983, 6.12679, 5.95374, 3.97483
0.000000, 1.98668, 1.98223, 0.997664
5.04261, 4.99091, 2.9886, 5.92616
2.94567, 3.97318, 1.96444, 3.01924
2.98926, 9.00078, 5.98932, 4.89606
7.88763, 2.95745, 1.00144, 3.99928
0.000000, 2.00956, 2.97835, 5.93456
2.97782, 2.9605, 3.01418, 2.96467
0.978133, 6.00928, 5.94389, 3.99209
4.01254, 3.92871, 3.96767, 5.93545
3.99586, 5.03449, 4.97409, 7.94412
5.03077, 3.01171, 1.03117, 4.95232
5.94095, 3.96811, 1.98847, 0.965384
4.92361, 5.98691, 2.96312, 1.99175
3.9689, 2.98221, 7.93882, 5.00107
7.97801, 3.97683, 2.00419, 2.99712
4.99841, 1.97987, 4.97823, 3.01957
6.02856, 1.00278, 7.97216, 4.88378
5.95602, 4.02257, 4.96359, 0.000000
2.9908, 3.99569, 6.9801, 4.99327
6.99553, 2.95709, 4.9569, 2.96915
4.1166, 5.95582, 3.9808, 4.96522
3.96061, 3.97711, 3.99094, 2.01253
0.994483, 5.00844, 5.93178, 1.00594
6.94761, 4.95523, 4.99676, 3.97409
3.06253, 2.99169, 4.0515, 2.97346
1.96716, 7.02676, 9.89315, 4.02219
3.95573, 4.9779, 4.94203, 0.995864
6.96833, 3.97888, 4.00441, 8.93223
5.93489, 6.98953, 3.94935, 3.99645
3.93234, 7.91891, 6.96395, 1.98884
1.97849, 4.9856, 4.97356, 2.99968
2.96638, 2.96866, 4.01563, 5.96994
2.95919, 6.95564, 0.998964, 1.96268
6.00895, 3.96236, 2.92851, 5.93758
3.02671, 2.01125, 2.95821, 3.99549
3.00499, 2.00983, 1.98911, 5.95577
3.94691, 3.99438, 3.97506, 4.96781
4.99552, 3.00037, 3.98964, 0.997172
3.94885, 5.00931, 5.89961, 6.94706
5.03642, 3.01846, 7.04929, 3.96578
2.9863, 5.04364, 4.00695, 2.04001
2.96483, 0.99354, 1.0284, 2.948
0.000000, 1.96563, 2.9769, 2.01102
4.98116, 2.93177, 4.96423, 7.92236
3.0068, 4.95319, 4.97233, 9.92968
4.93609, 2.96859, 5.91107, 3.97577
0.000000, 4.91207, 3.94596, 6.93944
3.99861, 5.00508, 3.94008, 0.993737
1.02988, 6.96551, 4.89679, 0.000000
5.95975, 3.95657, 3.94789, 3.00602
4.02081, 0.000000, 6.90783, 2.00312
5.98959, 0.99425, 1.3299, 5.00758
3.97512, 6.93739, 0.985956, 3.9834
1.00146, 5.95807, 1.98998, 7.948
3.95633, 6.99784, 2.97781, 4.96664
3.97948, 1.98112, 1.98342, 1.99466
8.93047, 8.0457, 2.96508, 5.95222
3.93963, 4.98827, 3.93166, 3.92976
4.96837, 2.98685, 5.0239, 1.97284
3.0058, 0.000000, 4.93579, 3.96335
5.00392, 1.00033, 4.97281, 3.99526
3.00822, 1.99636, 4.98785, 4.00196
2.99925, 4.97244, 0.996603, 4.0131
4.99384
*END

*EOF
