28.1179 5.9297 1.0000
28.1279 5.9489 1.0000
28.1379 11.0107 1.0000
28.1479 10.0508 1.0000
28.1579 6.9775 1.0000
28.1679 10.9250 1.0000
28.1779 11.9561 1.0000
28.1879 14.9356 1.0000
28.1979 5.9252 1.0000
28.2079 10.2961 1.0000
28.2179 4.9576 1.0000
28.2279 8.9136 1.0000
28.2379 8.9646 1.0000
28.2479 9.9373 1.0000
28.2579 13.9167 1.0000
28.2679 14.0851 1.0000
28.2779 11.9776 1.0000
28.2879 11.8880 1.0000
28.2979 14.0140 1.0000
28.3079 11.0692 1.0000
28.3179 9.9182 1.0000
28.3279 12.9973 1.0000
28.3379 5.9996 1.0000
28.3479 14.9981 1.0000
28.3579 10.9920 1.0000
28.3679 10.9450 1.0000
28.3779 12.9465 1.0000
28.3879 17.0311 1.0000
28.3979 20.9331 1.0000
28.4079 13.9083 1.0000
28.4179 6.9739 1.0000
28.4279 7.9456 1.0000
28.4379 8.9932 1.0000
28.4479 6.8628 1.0000
28.4579 3.9625 1.0000
28.4679 13.0860 1.0000
28.4779 10.9439 1.0000
28.4879 6.9868 1.0000
28.4979 6.9309 1.0000
28.5079 8.9565 1.0000
28.5179 4.9783 1.0000
28.5279 13.9616 1.0000
28.5379 9.0642 1.0000
28.5479 12.8918 1.0000
28.5579 16.0952 1.0000
28.5679 5.9455 1.0000
28.5779 11.9652 1.0000
28.5879 13.2945 1.0000
28.5979 10.9136 1.0000
28.6079 10.9521 1.0000
28.6179 8.1148 1.0000
28.6279 11.9133 1.0000
28.6379 12.9100 1.0000
28.6479 7.3242 1.0000
28.6579 7.9961 1.0000
28.6679 11.9580 1.0000
28.6779 19.9035 1.0000
28.6879 7.9795 1.0000
28.6979 10.9723 1.0000
28.7079 10.9909 1.0000
28.7179 12.8839 1.0000
28.7279 5.9910 1.0000
28.7379 13.9804 1.0000
28.7479 4.9656 1.0000
28.7579 9.8963 1.0000
28.7679 13.9065 1.0000
28.7779 11.9050 1.0000
28.7879 12.9353 1.0000
28.7979 8.0030 1.0000
28.8079 9.9533 1.0000
28.8179 14.9290 1.0000
28.8279 9.9703 1.0000
28.8379 7.0301 1.0000
28.8479 21.0085 1.0000
28.8579 13.8974 1.0000
28.8679 13.3242 1.0000
28.8779 5.9070 1.0000
28.8879 15.9700 1.0000
28.8979 11.9152 1.0000
28.9079 13.9139 1.0000
28.9179 11.0093 1.0000
28.9279 6.9599 1.0000
28.9379 12.2943 1.0000
28.9479 14.8936 1.0000
28.9579 12.9406 1.0000
28.9679 12.9745 1.0000
28.9779 8.9503 1.0000
28.9879 7.9489 1.0000
28.9979 5.0162 1.0000
29.0079 19.8747 1.0000
29.0179 10.9601 1.0000
29.0279 10.9678 1.0000
29.0379 10.8474 1.0000
29.0479 9.8981 1.0000
29.0579 13.9681 1.0000
29.0679 18.8091 1.0000
29.0779 11.9093 1.0000
29.0879 11.9117 1.0000
29.0979 9.9019 1.0000
29.1079 8.9770 1.0000
29.1179 12.9196 1.0000
29.1279 7.0115 1.0000
29.1379 13.9376 1.0000
29.1479 14.8911 1.0000
29.1579 5.9645 1.0000
29.1679 7.9848 1.0000
29.1779 13.0973 1.0000
29.1879 7.9404 1.0000
29.1979 6.9545 1.0000
29.2079 10.9074 1.0000
29.2179 16.8964 1.0000
29.2279 9.8898 1.0000
29.2379 11.9140 1.0000
29.2479 12.9689 1.0000
29.2579 8.9329 1.0000
29.2679 11.8937 1.0000
29.2779 9.9623 1.0000
29.2879 15.8945 1.0000
29.2979 6.0044 1.0000
29.3079 10.8996 1.0000
29.3179 11.8419 1.0000
29.3279 13.9913 1.0000
29.3379 10.0002 1.0000
29.3479 11.0029 1.0000
29.3579 7.9488 1.0000
29.3679 21.9028 1.0000
29.3779 13.0624 1.0000
29.3879 13.9609 1.0000
29.3979 20.9399 1.0000
29.4079 11.9095 1.0000
29.4179 15.9047 1.0000
29.4279 16.3323 1.0000
29.4379 10.9684 1.0000
29.4479 6.9168 1.0000
29.4579 12.9572 1.0000
29.4679 18.9681 1.0000
29.4779 11.9263 1.0000
29.4879 16.0149 1.0000
29.4979 13.9246 1.0000
29.5079 16.9558 1.0000
29.5179 10.9727 1.0000
29.5279 11.9754 1.0000
29.5379 14.0512 1.0000
29.5479 12.9169 1.0000
29.5579 6.9687 1.0000
29.5679 6.9089 1.0000
29.5779 9.9151 1.0000
29.5879 12.0956 1.0000
29.5979 8.9269 1.0000
29.6079 9.1356 1.0000
29.6179 12.9699 1.0000
29.6279 7.0211 1.0000
29.6379 14.9202 1.0000
29.6479 9.8952 1.0000
29.6579 7.9729 1.0000
29.6679 12.9083 1.0000
29.6779 14.8966 1.0000
29.6879 12.8914 1.0000
29.6979 7.9779 1.0000
29.7079 9.9682 1.0000
29.7179 10.2341 1.0000
29.7279 12.1556 1.0000
29.7379 17.0039 1.0000
29.7479 16.9870 1.0000
29.7579 10.0172 1.0000
29.7679 13.8947 1.0000
29.7779 12.8928 1.0000
29.7879 11.8409 1.0000
29.7979 16.9065 1.0000
29.8079 10.9651 1.0000
29.8179 13.9755 1.0000
29.8279 15.0084 1.0000
29.8379 16.3597 1.0000
29.8479 14.9399 1.0000
29.8579 14.9074 1.0000
29.8679 7.0008 1.0000
29.8779 11.9695 1.0000
29.8879 11.0298 1.0000
29.8979 11.9523 1.0000
29.9079 10.9464 1.0000
29.9179 15.9767 1.0000
29.9279 8.9311 1.0000
29.9379 13.9919 1.0000
29.9479 20.8139 1.0000
29.9579 13.0335 1.0000
29.9679 13.8997 1.0000
29.9779 13.0364 1.0000
29.9879 13.9263 1.0000
29.9979 10.9787 1.0000
30.0079 11.9824 1.0000
30.0179 4.9620 1.0000
30.0279 18.8542 1.0000
30.0379 13.0011 1.0000
30.0479 28.0473 1.0000
30.0579 19.9804 1.0000
30.0679 16.0244 1.0000
30.0779 13.0468 1.0000
30.0879 6.0038 1.0000
30.0979 22.9557 1.0000
30.1079 13.0209 1.0000
30.1179 17.0435 1.0000
30.1279 14.9579 1.0000
30.1379 25.8707 1.0000
30.1479 26.8612 1.0000
30.1579 20.9220 1.0000
30.1679 7.8673 1.0000
30.1779 9.9834 1.0000
30.1879 12.9615 1.0000
30.1979 14.9829 1.0000
30.2079 12.9006 1.0000
30.2179 14.9280 1.0000
30.2279 15.8774 1.0000
30.2379 12.9875 1.0000
30.2479 23.8878 1.0000
30.2579 15.9294 1.0000
30.2679 18.9802 1.0000
30.2779 14.9717 1.0000
30.2879 18.9391 1.0000
30.2979 11.9252 1.0000
30.3079 21.8649 1.0000
30.3179 15.9471 1.0000
30.3279 10.9526 1.0000
30.3379 18.9174 1.0000
30.3479 19.0159 1.0000
30.3579 18.8798 1.0000
30.3679 18.9497 1.0000
30.3779 14.9700 1.0000
30.3879 18.8657 1.0000
30.3979 28.0088 1.0000
30.4079 15.8394 1.0000
30.4179 14.8919 1.0000
30.4279 21.9483 1.0000
30.4379 21.9371 1.0000
30.4479 16.8886 1.0000
30.4579 14.9450 1.0000
30.4679 22.0529 1.0000
30.4779 24.8706 1.0000
30.4879 14.9427 1.0000
30.4979 18.0237 1.0000
30.5079 22.8989 1.0000
30.5179 14.0024 1.0000
30.5279 15.0931 1.0000
30.5379 9.0413 1.0000
30.5479 15.9296 1.0000
30.5579 13.8798 1.0000
30.5679 22.9232 1.0000
30.5779 17.8750 1.0000
30.5879 19.8682 1.0000
30.5979 10.1293 1.0000
30.6079 29.8443 1.0000
30.6179 14.9733 1.0000
30.6279 26.2202 1.0000
30.6379 16.2597 1.0000
30.6479 18.9297 1.0000
30.6579 18.8417 1.0000
30.6679 24.2672 1.0000
30.6779 13.9416 1.0000
30.6879 18.9699 1.0000
30.6979 16.9564 1.0000
30.7079 18.0186 1.0000
30.7179 24.8680 1.0000
30.7279 27.1421 1.0000
30.7379 19.8959 1.0000
30.7479 17.9231 1.0000
30.7579 18.9287 1.0000
30.7679 22.3098 1.0000
30.7779 26.0524 1.0000
30.7879 21.0210 1.0000
30.7979 13.9214 1.0000
30.8079 21.8908 1.0000
30.8179 13.9173 1.0000
30.8279 20.8142 1.0000
30.8379 16.9442 1.0000
30.8479 27.8211 1.0000
30.8579 13.8428 1.0000
30.8679 19.1031 1.0000
30.8779 28.0001 1.0000
30.8879 19.9819 1.0000
30.8979 24.1266 1.0000
30.9079 26.0016 1.0000
30.9179 32.9611 1.0000
30.9279 18.9940 1.0000
30.9379 25.8186 1.0000
30.9479 28.8195 1.0000
30.9579 26.0574 1.0000
30.9679 29.0179 1.0000
30.9779 28.7814 1.0000
30.9879 27.1942 1.0000
30.9979 24.8867 1.0000
31.0079 25.7843 1.0000
31.0179 23.8821 1.0000
31.0279 33.0713 1.0000
31.0379 23.9474 1.0000
31.0479 25.8732 1.0000
31.0579 31.9719 1.0000
31.0679 32.9507 1.0000
31.0779 33.8342 1.0000
31.0879 25.8803 1.0000
31.0979 25.9279 1.0000
31.1079 31.9651 1.0000
31.1179 19.0322 1.0000
31.1279 30.9676 1.0000
31.1379 28.9749 1.0000
31.1479 34.8802 1.0000
31.1579 23.7994 1.0000
31.1679 25.0082 1.0000
31.1779 25.7978 1.0000
31.1879 21.9941 1.0000
31.1979 21.0641 1.0000
31.2079 26.8768 1.0000
31.2179 25.9874 1.0000
31.2279 30.9727 1.0000
31.2379 30.8835 1.0000
31.2479 39.8089 1.0000
31.2579 28.8870 1.0000
31.2679 37.0226 1.0000
31.2779 21.9132 1.0000
31.2879 34.0134 1.0000
31.2979 31.8965 1.0000
31.3079 37.0865 1.0000
31.3179 28.8697 1.0000
31.3279 43.6122 1.0000
31.3379 28.9358 1.0000
31.3479 28.8445 1.0000
31.3579 31.8914 1.0000
31.3679 31.8890 1.0000
31.3779 24.9770 1.0000
31.3879 30.1342 1.0000
31.3979 32.0403 1.0000
31.4079 35.8854 1.0000
31.4179 43.8637 1.0000
31.4279 36.8938 1.0000
31.4379 32.8917 1.0000
31.4479 40.8858 1.0000
31.4579 46.9537 1.0000
31.4679 42.8072 1.0000
31.4779 43.8041 1.0000
31.4879 38.8208 1.0000
31.4979 37.8573 1.0000
31.5079 43.0091 1.0000
31.5179 37.9341 1.0000
31.5279 48.7338 1.0000
31.5379 32.0090 1.0000
31.5479 40.0145 1.0000
31.5579 47.8583 1.0000
31.5679 42.0201 1.0000
31.5779 44.3632 1.0000
31.5879 41.9192 1.0000
31.5979 42.9610 1.0000
31.6079 41.8832 1.0000
31.6179 38.8013 1.0000
31.6279 42.0460 1.0000
31.6379 59.0454 1.0000
31.6479 45.8673 1.0000
31.6579 48.8470 1.0000
31.6679 52.9805 1.0000
31.6779 42.7211 1.0000
31.6879 48.9235 1.0000
31.6979 38.8071 1.0000
31.7079 57.6292 1.0000
31.7179 49.6898 1.0000
31.7279 56.0665 1.0000
31.7379 40.8326 1.0000
31.7479 54.8934 1.0000
31.7579 37.0171 1.0000
31.7679 55.0866 1.0000
31.7779 61.7816 1.0000
31.7879 51.9710 1.0000
31.7979 49.7586 1.0000
31.8079 44.9031 1.0000
31.8179 56.6153 1.0000
31.8279 56.9104 1.0000
31.8379 47.8753 1.0000
31.8479 73.1326 1.0000
31.8579 73.6405 1.0000
31.8679 55.6731 1.0000
31.8779 58.9037 1.0000
31.8879 70.1373 1.0000
31.8979 57.1316 1.0000
31.9079 67.8773 1.0000
31.9179 66.5800 1.0000
31.9279 75.0459 1.0000
31.9379 75.5913 1.0000
31.9479 67.8745 1.0000
31.9579 71.7002 1.0000
31.9679 74.7886 1.0000
31.9779 57.0589 1.0000
31.9879 67.2019 1.0000
31.9979 70.3255 1.0000
32.0079 76.7337 1.0000
32.0179 79.6215 1.0000
32.0279 74.9408 1.0000
32.0379 84.9594 1.0000
32.0479 85.7344 1.0000
32.0579 99.7022 1.0000
32.0679 91.8890 1.0000
32.0779 89.1385 1.0000
32.0879 74.9051 1.0000
32.0979 82.7893 1.0000
32.1079 92.0905 1.0000
32.1179 91.8759 1.0000
32.1279 90.8244 1.0000
32.1379 96.8666 1.0000
32.1479 106.0795 1.0000
32.1579 105.0670 1.0000
32.1679 115.6509 1.0000
32.1779 97.8063 1.0000
32.1879 100.2193 1.0000
32.1979 107.0861 1.0000
32.2079 104.6905 1.0000
32.2179 132.8806 1.0000
32.2279 131.4379 1.0000
32.2379 117.1046 1.0000
32.2479 129.7167 1.0000
32.2579 139.7008 1.0000
32.2679 143.9151 1.0000
32.2779 143.3888 1.0000
32.2879 135.1861 1.0000
32.2979 136.7769 1.0000
32.3079 140.6138 1.0000
32.3179 130.6841 1.0000
32.3279 152.3922 1.0000
32.3379 161.6099 1.0000
32.3479 171.8123 1.0000
32.3579 178.3453 1.0000
32.3679 167.3340 1.0000
32.3779 180.5609 1.0000
32.3879 214.5870 1.0000
32.3979 218.3080 1.0000
32.4079 201.7272 1.0000
32.4179 202.3577 1.0000
32.4279 211.6948 1.0000
32.4379 225.8980 1.0000
32.4479 254.6774 1.0000
32.4579 229.0645 1.0000
32.4679 255.4100 1.0000
32.4779 262.5339 1.0000
32.4879 278.3825 1.0000
32.4979 285.0773 1.0000
32.5079 302.6128 1.0000
32.5179 298.3416 1.0000
32.5279 309.5820 1.0000
32.5379 379.4031 1.0000
32.5479 411.5916 1.0000
32.5579 437.4368 1.0000
32.5679 446.6621 1.0000
32.5779 468.6711 1.0000
32.5879 482.2790 1.0000
32.5979 634.2614 1.0000
32.6079 845.5055 1.0000
32.6179 1467.2511 1.0000
32.6279 4253.0303 1.0000
32.6379 7630.0820 1.0000
32.6479 5131.1558 1.0000
32.6579 1821.4279 1.0000
32.6679 1212.0884 1.0000
32.6779 1012.6260 1.0000
32.6879 1098.1583 1.0000
32.6979 1703.5841 1.0000
32.7079 3048.2000 1.0000
32.7179 3503.5718 1.0000
32.7279 2334.7505 1.0000
32.7379 1669.6522 1.0000
32.7479 2316.8521 1.0000
32.7579 5497.7476 1.0000
32.7679 13480.4746 1.0000
32.7779 5623.3071 1.0000
32.7879 3071.3557 1.0000
32.7979 4861.8252 1.0000
32.8079 10211.3584 1.0000
32.8179 18913.4063 1.0000
32.8279 37213.0820 1.0000
32.8379 53369.3047 1.0000
32.8479 47980.1758 1.0000
32.8579 37275.9688 1.0000
32.8679 34233.4023 1.0000
32.8779 35855.4414 1.0000
32.8879 22082.0273 1.0000
32.8979 14512.1768 1.0000
32.9079 22983.1836 1.0000
32.9179 45034.5000 1.0000
32.9279 43400.9766 1.0000
32.9379 37794.1797 1.0000
32.9479 46492.3281 1.0000
32.9579 56793.3438 1.0000
32.9679 69775.8828 1.0000
32.9779 67253.4531 1.0000
32.9879 59480.1680 1.0000
32.9979 53007.0859 1.0000
33.0079 47844.3516 1.0000
33.0179 54898.2148 1.0000
33.0279 58573.2852 1.0000
33.0379 54048.3828 1.0000
33.0479 57045.7500 1.0000
33.0579 72024.2109 1.0000
33.0679 70134.9609 1.0000
33.0779 53130.6484 1.0000
33.0879 56825.1953 1.0000
33.0979 53135.6445 1.0000
33.1079 51059.7656 1.0000
33.1179 59257.5039 1.0000
33.1279 62053.9648 1.0000
33.1379 59689.2266 1.0000
33.1479 51710.4844 1.0000
33.1579 48896.6172 1.0000
33.1679 52683.2344 1.0000
33.1779 59933.5430 1.0000
33.1879 53449.8906 1.0000
33.1979 35314.0156 1.0000
33.2079 26756.3457 1.0000
33.2179 24150.1836 1.0000
33.2279 24544.0137 1.0000
33.2379 29492.8574 1.0000
33.2479 32866.5547 1.0000
33.2579 29606.7363 1.0000
33.2679 28355.3496 1.0000
33.2779 21842.1270 1.0000
33.2879 17981.9141 1.0000
33.2979 22428.5938 1.0000
33.3079 23364.8984 1.0000
33.3179 20837.2012 1.0000
33.3279 10634.5742 1.0000
33.3379 5320.8521 1.0000
33.3479 3909.9795 1.0000
33.3579 2631.7771 1.0000
33.3679 1367.8199 1.0000
33.3779 1167.3082 1.0000
33.3879 977.7450 1.0000
33.3979 941.2254 1.0000
33.4079 852.1348 1.0000
33.4179 768.0677 1.0000
33.4279 785.0478 1.0000
33.4379 738.9944 1.0000
33.4479 671.0080 1.0000
33.4579 618.5450 1.0000
33.4679 555.6302 1.0000
33.4779 517.9114 1.0000
33.4879 501.3418 1.0000
33.4979 491.0630 1.0000
33.5079 503.1576 1.0000
33.5179 444.8321 1.0000
33.5279 451.1051 1.0000
33.5379 377.1393 1.0000
33.5479 382.3371 1.0000
33.5579 399.3999 1.0000
33.5679 335.9137 1.0000
33.5779 349.3106 1.0000
33.5879 314.2913 1.0000
33.5979 313.1678 1.0000
33.6079 285.8748 1.0000
33.6179 298.3474 1.0000
33.6279 240.4532 1.0000
33.6379 278.0893 1.0000
33.6479 234.8407 1.0000
33.6579 269.5469 1.0000
33.6679 227.5836 1.0000
33.6779 246.6702 1.0000
33.6879 228.4739 1.0000
33.6979 220.2397 1.0000
33.7079 186.6337 1.0000
33.7179 201.2731 1.0000
33.7279 203.3007 1.0000
33.7379 202.1734 1.0000
33.7479 195.8390 1.0000
33.7579 200.2545 1.0000
33.7679 165.8932 1.0000
33.7779 185.7792 1.0000
33.7879 173.7064 1.0000
33.7979 138.3110 1.0000
33.8079 146.5267 1.0000
33.8179 136.6619 1.0000
33.8279 159.4096 1.0000
33.8379 135.5600 1.0000
33.8479 148.6866 1.0000
33.8579 139.8933 1.0000
33.8679 145.9737 1.0000
33.8779 138.4458 1.0000
33.8879 128.7769 1.0000
33.8979 124.5307 1.0000
33.9079 113.8572 1.0000
33.9179 133.7898 1.0000
33.9279 151.7133 1.0000
33.9379 128.3796 1.0000
33.9479 100.7757 1.0000
33.9579 114.7655 1.0000
33.9679 81.8647 1.0000
33.9779 104.3185 1.0000
33.9879 121.1810 1.0000
33.9979 107.5307 1.0000
34.0079 92.0846 1.0000
34.0179 107.4545 1.0000
34.0279 85.6054 1.0000
34.0379 91.8599 1.0000
34.0479 115.8333 1.0000
34.0579 111.6422 1.0000
34.0679 111.7196 1.0000
34.0779 94.3976 1.0000
34.0879 78.6840 1.0000
34.0979 80.2551 1.0000
34.1079 78.6029 1.0000
34.1179 95.6936 1.0000
34.1279 91.8379 1.0000
34.1379 72.8386 1.0000
34.1479 71.7717 1.0000
34.1579 72.3988 1.0000
34.1679 64.8257 1.0000
34.1779 82.4846 1.0000
34.1879 63.6496 1.0000
34.1979 69.8728 1.0000
34.2079 64.8124 1.0000
34.2179 76.8451 1.0000
34.2279 75.9353 1.0000
34.2379 76.2413 1.0000
34.2479 59.9130 1.0000
34.2579 62.6838 1.0000
34.2679 67.9016 1.0000
34.2779 67.8011 1.0000
34.2879 55.7379 1.0000
34.2979 57.7810 1.0000
34.3079 74.8744 1.0000
34.3179 55.1885 1.0000
34.3279 65.8180 1.0000
34.3379 56.7334 1.0000
34.3479 46.9894 1.0000
34.3579 60.7610 1.0000
34.3679 54.9820 1.0000
34.3779 52.6556 1.0000
34.3879 64.0368 1.0000
34.3979 58.8917 1.0000
34.4079 60.4151 1.0000
34.4179 62.8721 1.0000
34.4279 43.8295 1.0000
34.4379 48.7584 1.0000
34.4479 46.9482 1.0000
34.4579 45.8648 1.0000
34.4679 41.8465 1.0000
34.4779 49.7525 1.0000
34.4879 37.9083 1.0000
34.4979 36.9788 1.0000
34.5079 50.8191 1.0000
34.5179 51.9199 1.0000
34.5279 49.9959 1.0000
34.5379 53.8849 1.0000
34.5479 55.8447 1.0000
34.5579 46.8366 1.0000
34.5679 38.8298 1.0000
34.5779 47.8885 1.0000
34.5879 40.8162 1.0000
34.5979 35.9431 1.0000
34.6079 34.9385 1.0000
34.6179 35.9587 1.0000
34.6279 42.8100 1.0000
34.6379 41.8554 1.0000
34.6479 35.8062 1.0000
34.6579 48.7961 1.0000
34.6679 35.7219 1.0000
34.6779 39.6014 1.0000
34.6879 38.0571 1.0000
34.6979 38.7984 1.0000
34.7079 29.9469 1.0000
34.7179 33.1561 1.0000
34.7279 40.8385 1.0000
34.7379 42.9541 1.0000
34.7479 30.9224 1.0000
34.7579 37.1885 1.0000
34.7679 25.8346 1.0000
34.7779 24.8467 1.0000
34.7879 41.8015 1.0000
34.7979 30.0654 1.0000
34.8079 26.8039 1.0000
34.8179 25.0732 1.0000
34.8279 35.0057 1.0000
34.8379 45.9096 1.0000
34.8479 42.7732 1.0000
34.8579 31.7964 1.0000
34.8679 35.0924 1.0000
34.8779 32.0009 1.0000
34.8879 30.8246 1.0000
34.8979 21.8647 1.0000
34.9079 30.9531 1.0000
34.9179 34.8061 1.0000
34.9279 32.9930 1.0000
34.9379 18.9585 1.0000
34.9479 31.8730 1.0000
34.9579 39.9823 1.0000
34.9679 28.8623 1.0000
34.9779 41.8283 1.0000
34.9879 20.8448 1.0000
34.9979 32.0198 1.0000
35.0079 23.9707 1.0000
35.0179 30.9341 1.0000
35.0279 37.9263 1.0000
35.0379 21.8894 1.0000
35.0479 25.8504 1.0000
35.0579 20.0194 1.0000
35.0679 24.0099 1.0000
35.0779 31.9381 1.0000
35.0879 28.0617 1.0000
35.0979 22.0590 1.0000
35.1079 14.8918 1.0000
35.1179 29.8700 1.0000
35.1279 14.9500 1.0000
35.1379 22.8685 1.0000
35.1479 23.9853 1.0000
35.1579 26.9531 1.0000
35.1679 23.9854 1.0000
35.1779 24.0308 1.0000
35.1879 18.9057 1.0000
35.1979 18.3337 1.0000
35.2079 20.9901 1.0000
35.2179 17.8606 1.0000
35.2279 18.2857 1.0000
35.2379 22.0808 1.0000
35.2479 16.9579 1.0000
35.2579 22.0043 1.0000
35.2679 22.0217 1.0000
35.2779 18.8648 1.0000
35.2879 23.9990 1.0000
35.2979 24.0163 1.0000
35.3079 21.0149 1.0000
35.3179 22.0579 1.0000
35.3279 13.9106 1.0000
35.3379 20.9819 1.0000
35.3479 11.9260 1.0000
35.3579 15.9468 1.0000
35.3679 14.9663 1.0000
35.3779 18.0907 1.0000
35.3879 16.9712 1.0000
35.3979 27.9050 1.0000
35.4079 14.9299 1.0000
35.4179 12.8578 1.0000
35.4279 20.8269 1.0000
35.4379 21.9673 1.0000
35.4479 18.8532 1.0000
35.4579 25.3820 1.0000
35.4679 18.8830 1.0000
35.4779 21.8315 1.0000
35.4879 19.2613 1.0000
35.4979 16.9207 1.0000
35.5079 18.2401 1.0000
35.5179 15.9746 1.0000
35.5279 12.9625 1.0000
35.5379 14.9170 1.0000
35.5479 20.9370 1.0000
35.5579 15.9115 1.0000
35.5679 18.1320 1.0000
35.5779 12.8706 1.0000
35.5879 19.9364 1.0000
35.5979 12.9099 1.0000
35.6079 8.9599 1.0000
35.6179 13.9754 1.0000
35.6279 20.9739 1.0000
35.6379 16.9283 1.0000
35.6479 15.9753 1.0000
35.6579 15.2967 1.0000
35.6679 19.9026 1.0000
35.6779 13.8926 1.0000
35.6879 17.0133 1.0000
35.6979 20.9700 1.0000
35.7079 23.8114 1.0000
35.7179 18.8938 1.0000
35.7279 10.0950 1.0000
35.7379 16.9364 1.0000
35.7479 8.9686 1.0000
35.7579 20.8895 1.0000
35.7679 13.9170 1.0000
35.7779 15.0731 1.0000
35.7879 11.0513 1.0000
35.7979 19.8948 1.0000
35.8079 11.9094 1.0000
35.8179 12.8912 1.0000
35.8279 16.9531 1.0000
35.8379 9.9313 1.0000
35.8479 15.8064 1.0000
35.8579 10.8689 1.0000
35.8679 14.9166 1.0000
35.8779 7.0704 1.0000
35.8879 15.9212 1.0000
35.8979 10.0612 1.0000
35.9079 10.1952 1.0000
35.9179 15.9407 1.0000
35.9279 8.9555 1.0000
35.9379 14.8876 1.0000
35.9479 12.2996 1.0000
35.9579 12.0005 1.0000
35.9679 9.9135 1.0000
35.9779 10.9470 1.0000
35.9879 18.0405 1.0000
35.9979 10.9281 1.0000
36.0079 9.8826 1.0000
36.0179 12.9492 1.0000
36.0279 17.7987 1.0000
36.0379 12.9516 1.0000
36.0479 14.9663 1.0000
36.0579 8.9520 1.0000
36.0679 14.9317 1.0000
36.0779 13.8506 1.0000
36.0879 5.9023 1.0000
36.0979 10.9296 1.0000
36.1079 18.9521 1.0000
36.1179 12.9730 1.0000
36.1279 11.9231 1.0000
36.1379 16.8496 1.0000
36.1479 10.9277 1.0000
36.1579 8.2874 1.0000
36.1679 14.9819 1.0000
36.1779 4.9394 1.0000
36.1879 13.9450 1.0000
36.1979 16.0207 1.0000
36.2079 9.9611 1.0000
36.2179 20.9798 1.0000
36.2279 7.9849 1.0000
36.2379 12.8512 1.0000
36.2479 8.9127 1.0000
36.2579 9.8835 1.0000
36.2679 6.0134 1.0000
36.2779 14.0258 1.0000
36.2879 12.9008 1.0000
36.2979 15.0264 1.0000
36.3079 11.0253 1.0000
36.3179 6.9792 1.0000
36.3279 15.8599 1.0000
36.3379 11.9289 1.0000
36.3479 10.0018 1.0000
36.3579 7.9364 1.0000
36.3679 10.0588 1.0000
36.3779 12.1238 1.0000
36.3879 10.9481 1.0000
36.3979 12.8929 1.0000
36.4079 9.9026 1.0000
36.4179 12.9788 1.0000
36.4279 12.9878 1.0000
36.4379 4.9346 1.0000
36.4479 14.8915 1.0000
36.4579 14.2205 1.0000
36.4679 10.2002 1.0000
36.4779 11.8977 1.0000
36.4879 4.9503 1.0000
36.4979 8.0086 1.0000
36.5079 13.8814 1.0000
36.5179 12.0272 1.0000
36.5279 7.1156 1.0000
36.5379 7.9850 1.0000
36.5479 8.9096 1.0000
36.5579 10.9776 1.0000
36.5679 6.9780 1.0000
36.5779 12.3011 1.0000
36.5879 9.9707 1.0000
36.5979 15.0041 1.0000
36.6079 4.0305 1.0000
36.6179 6.9632 1.0000
36.6279 7.9697 1.0000
36.6379 4.9855 1.0000
36.6479 7.9438 1.0000
36.6579 4.9906 1.0000
36.6679 8.9210 1.0000
36.6779 3.9957 1.0000
36.6879 10.9149 1.0000
36.6979 4.9496 1.0000
36.7079 8.9662 1.0000
36.7179 9.9862 1.0000
36.7279 9.9099 1.0000
36.7379 13.8661 1.0000
36.7479 4.9307 1.0000
36.7579 11.2000 1.0000
36.7679 10.1635 1.0000
36.7779 10.9496 1.0000
36.7879 6.9841 1.0000
36.7979 11.9429 1.0000
36.8079 7.9615 1.0000
36.8179 7.0030 1.0000
36.8279 7.9348 1.0000
36.8379 6.9162 1.0000
36.8479 3.9530 1.0000
36.8579 6.9591 1.0000
36.8679 11.9034 1.0000
36.8779 7.9141 1.0000
36.8879 13.9152 1.0000
36.8979 11.0599 1.0000
36.9079 6.9769 1.0000
36.9179 13.0548 1.0000
36.9279 10.9434 1.0000
36.9379 7.9536 1.0000
36.9479 8.8900 1.0000
36.9579 6.0136 1.0000
36.9679 10.0101 1.0000
36.9779 10.9543 1.0000
36.9879 7.9426 1.0000
36.9979 5.9968 1.0000
37.0079 4.9911 1.0000
37.0179 8.9555 1.0000
37.0279 6.9287 1.0000
37.0379 8.9132 1.0000
37.0479 2.9592 1.0000
37.0579 9.9783 1.0000
37.0679 4.9629 1.0000
37.0779 10.9296 1.0000
37.0879 7.9417 1.0000
37.0979 4.0201 1.0000
37.1079 5.9446 1.0000
37.1179 10.9851 1.0000
37.1279 14.9635 1.0000
37.1379 12.9580 1.0000
37.1479 7.9445 1.0000
37.1579 10.9700 1.0000
37.1679 3.0004 1.0000
37.1779 8.9974 1.0000
37.1879 8.9608 1.0000
37.1979 7.9572 1.0000
37.2079 6.9222 1.0000
37.2179 5.9948 1.0000
37.2279 4.9897 1.0000
37.2379 9.9864 1.0000
37.2479 10.0262 1.0000
37.2579 7.0105 1.0000
37.2679 3.9983 1.0000
37.2779 8.0181 1.0000
37.2879 7.9520 1.0000
37.2979 4.0529 1.0000
37.3079 7.0486 1.0000
37.3179 6.0527 1.0000
37.3279 4.9550 1.0000
37.3379 6.9198 1.0000
37.3479 7.9770 1.0000
37.3579 4.9423 1.0000
37.3679 4.0293 1.0000
37.3779 12.9905 1.0000
37.3879 13.1119 1.0000
37.3979 9.9452 1.0000
37.4079 10.9986 1.0000
37.4179 5.9466 1.0000
37.4279 6.9881 1.0000
37.4379 5.9103 1.0000
37.4479 9.9179 1.0000
37.4579 6.9900 1.0000
37.4679 9.9750 1.0000
37.4779 8.9527 1.0000
37.4879 12.9467 1.0000
37.4979 9.9101 1.0000
37.5079 8.9581 1.0000
37.5179 6.0281 1.0000
37.5279 4.9734 1.0000
37.5379 5.0271 1.0000
37.5479 13.9484 1.0000
37.5579 1.0139 1.0000
37.5679 6.9260 1.0000
37.5779 4.0097 1.0000
37.5879 4.9185 1.0000
37.5979 7.9302 1.0000
37.6079 7.8696 1.0000
37.6179 5.1523 1.0000
37.6279 4.9712 1.0000
37.6379 4.9788 1.0000
37.6479 3.9430 1.0000
37.6579 6.0168 1.0000
37.6679 5.9746 1.0000
37.6779 6.0050 1.0000
37.6879 9.9956 1.0000
37.6979 5.9427 1.0000
37.7079 2.9648 1.0000
37.7179 11.9347 1.0000
37.7279 1.9788 1.0000
37.7379 8.9226 1.0000
37.7479 5.9938 1.0000
37.7579 5.9765 1.0000
37.7679 7.9682 1.0000
37.7779 9.0194 1.0000
37.7879 5.9553 1.0000
37.7979 11.3904 1.0000
37.8079 3.0432 1.0000
37.8179 8.9427 1.0000
37.8279 2.9425 1.0000
37.8379 8.9042 1.0000
37.8479 6.0122 1.0000
37.8579 6.9504 1.0000
37.8679 4.9873 1.0000
37.8779 4.9779 1.0000
37.8879 6.9992 1.0000
37.8979 4.9809 1.0000
37.9079 5.9804 1.0000
37.9179 5.9422 1.0000
37.9279 5.9292 1.0000
37.9379 4.9930 1.0000
37.9479 4.9997 1.0000
37.9579 19.9189 1.0000
37.9679 18.9663 1.0000
37.9779 9.9846 1.0000
37.9879 8.9016 1.0000
37.9979 5.0354 1.0000
38.0079 5.0423 1.0000
38.0179 6.9335 1.0000
38.0279 14.8491 1.0000
38.0379 3.9648 1.0000
38.0479 6.9319 1.0000
38.0579 5.9356 1.0000
38.0679 3.9493 1.0000
38.0779 2.9505 1.0000
38.0879 11.0860 1.0000
38.0979 3.9918 1.0000
38.1079 7.0120 1.0000
38.1179 3.9532 1.0000